     4.00000     0.13171586E-03
     4.01200     0.13459639E-03
     4.02400     0.13754792E-03
     4.03600     0.14057312E-03
     4.04800     0.14367479E-03
     4.06000     0.14685587E-03
     4.07200     0.15011943E-03
     4.08400     0.15346870E-03
     4.09600     0.15690705E-03
     4.10800     0.16043804E-03
     4.12000     0.16406538E-03
     4.13200     0.16779299E-03
     4.14400     0.17162498E-03
     4.15600     0.17556567E-03
     4.16800     0.17961963E-03
     4.18000     0.18379163E-03
     4.19200     0.18808674E-03
     4.20400     0.19251027E-03
     4.21600     0.19706786E-03
     4.22800     0.20176543E-03
     4.24000     0.20660926E-03
     4.25200     0.21160598E-03
     4.26400     0.21676261E-03
     4.27600     0.22208657E-03
     4.28800     0.22758576E-03
     4.30000     0.23326852E-03
     4.31200     0.23914373E-03
     4.32400     0.24522082E-03
     4.33600     0.25150982E-03
     4.34800     0.25802140E-03
     4.36000     0.26476694E-03
     4.37200     0.27175858E-03
     4.38400     0.27900927E-03
     4.39600     0.28653286E-03
     4.40800     0.29434418E-03
     4.42000     0.30245911E-03
     4.43200     0.31089468E-03
     4.44400     0.31966918E-03
     4.45600     0.32880230E-03
     4.46800     0.33831521E-03
     4.48000     0.34823077E-03
     4.49200     0.35857365E-03
     4.50400     0.36937054E-03
     4.51600     0.38065036E-03
     4.52800     0.39244450E-03
     4.54000     0.40478709E-03
     4.55200     0.41771531E-03
     4.56400     0.43126976E-03
     4.57600     0.44549482E-03
     4.58800     0.46043920E-03
     4.60000     0.47615641E-03
     4.61200     0.49270546E-03
     4.62400     0.51015154E-03
     4.63600     0.52856696E-03
     4.64800     0.54803215E-03
     4.66000     0.56863692E-03
     4.67200     0.59048197E-03
     4.68400     0.61368069E-03
     4.69600     0.63836141E-03
     4.70800     0.66467012E-03
     4.72000     0.69277386E-03
     4.73200     0.72286503E-03
     4.74400     0.75516663E-03
     4.75600     0.78993908E-03
     4.76800     0.82748865E-03
     4.78000     0.86817817E-03
     4.79200     0.91244057E-03
     4.80400     0.96079579E-03
     4.81600     0.10138719E-02
     4.82800     0.10724311E-02
     4.84000     0.11374017E-02
     4.85200     0.12099157E-02
     4.86400     0.12913548E-02
     4.87600     0.13834014E-02
     4.88800     0.14880975E-02
     4.90000     0.16079082E-02
     4.91200     0.17457875E-02
     4.92400     0.19052434E-02
     4.93600     0.20903959E-02
     4.94800     0.23060212E-02
     4.96000     0.25575744E-02
     4.97200     0.28511784E-02
     4.98400     0.31935713E-02
     4.99600     0.35919988E-02
     5.00800     0.40540448E-02
     5.02000     0.45873931E-02
     5.03200     0.51995176E-02
     5.04400     0.58973073E-02
     5.05600     0.66866353E-02
     5.06800     0.75718952E-02
     5.08000     0.85555288E-02
     5.09200     0.96375858E-02
     5.10400     0.10815351E-01
     5.11600     0.12083087E-01
     5.12800     0.13431927E-01
     5.14000     0.14849952E-01
     5.15200     0.16322481E-01
     5.16400     0.17832564E-01
     5.17600     0.19361668E-01
     5.18800     0.20890528E-01
     5.20000     0.22400086E-01
     5.21200     0.23872471E-01
     5.22400     0.25291908E-01
     5.23600     0.26645494E-01
     5.24800     0.27923757E-01
     5.26000     0.29120936E-01
     5.27200     0.30234943E-01
     5.28400     0.31267016E-01
     5.29600     0.32221081E-01
     5.30800     0.33102885E-01
     5.32000     0.33918990E-01
     5.33200     0.34675738E-01
     5.34400     0.35378279E-01
     5.35600     0.36029794E-01
     5.36800     0.36630966E-01
     5.38000     0.37179785E-01
     5.39200     0.37671687E-01
     5.40400     0.38100013E-01
     5.41600     0.38456740E-01
     5.42800     0.38733385E-01
     5.44000     0.38921988E-01
     5.45200     0.39016056E-01
     5.46400     0.39011364E-01
     5.47600     0.38906515E-01
     5.48800     0.38703215E-01
     5.50000     0.38406232E-01
     5.51200     0.38023044E-01
     5.52400     0.37563236E-01
     5.53600     0.37037717E-01
     5.54800     0.36457849E-01
     5.56000     0.35834581E-01
     5.57200     0.35177700E-01
     5.58400     0.34495253E-01
     5.59600     0.33793205E-01
     5.60800     0.33075353E-01
     5.62000     0.32343483E-01
     5.63200     0.31597736E-01
     5.64400     0.30837125E-01
     5.65600     0.30060125E-01
     5.66800     0.29265267E-01
     5.68000     0.28451672E-01
     5.69200     0.27619443E-01
     5.70400     0.26769910E-01
     5.71600     0.25905690E-01
     5.72800     0.25030579E-01
     5.74000     0.24149301E-01
     5.75200     0.23267152E-01
     5.76400     0.22389600E-01
     5.77600     0.21521878E-01
     5.78800     0.20668631E-01
     5.80000     0.19833642E-01
     5.81200     0.19019672E-01
     5.82400     0.18228413E-01
     5.83600     0.17460555E-01
     5.84800     0.16715940E-01
     5.86000     0.15993787E-01
     5.87200     0.15292945E-01
     5.88400     0.14612145E-01
     5.89600     0.13950224E-01
     5.90800     0.13306298E-01
     5.92000     0.12679866E-01
     5.93200     0.12070852E-01
     5.94400     0.11479570E-01
     5.95600     0.10906650E-01
     5.96800     0.10352920E-01
     5.98000     0.98192692E-02
     5.99200     0.93065176E-02
     6.00400     0.88153034E-02
     6.01600     0.83459973E-02
     6.02800     0.78986560E-02
     6.04000     0.74730131E-02
     6.05200     0.70685054E-02
     6.06400     0.66843269E-02
     6.07600     0.63195008E-02
     6.08800     0.59729600E-02
     6.10000     0.56436241E-02
     6.11200     0.53304658E-02
     6.12400     0.50325612E-02
     6.13600     0.47491184E-02
     6.14800     0.44794871E-02
     6.16000     0.42231491E-02
     6.17200     0.39796947E-02
     6.18400     0.37487903E-02
     6.19600     0.35301421E-02
     6.20800     0.33234612E-02
     6.22000     0.31284351E-02
     6.23200     0.29447068E-02
     6.24400     0.27718638E-02
     6.25600     0.26094380E-02
     6.26800     0.24569122E-02
     6.28000     0.23137347E-02
     6.29200     0.21793363E-02
     6.30400     0.20531495E-02
     6.31600     0.19346256E-02
     6.32800     0.18232488E-02
     6.34000     0.17185464E-02
     6.35200     0.16200932E-02
     6.36400     0.15275122E-02
     6.37600     0.14404705E-02
     6.38800     0.13586730E-02
     6.40000     0.12818539E-02
     6.41200     0.12097679E-02
     6.42400     0.11421824E-02
     6.43600     0.10788710E-02
     6.44800     0.10196089E-02
     6.46000     0.96417052E-03
     6.47200     0.91232932E-03
     6.48400     0.86385903E-03
     6.49600     0.81853620E-03
     6.50800     0.77614335E-03
     6.52000     0.73647208E-03
     6.53200     0.69932590E-03
     6.54400     0.66452227E-03
     6.55600     0.63189376E-03
     6.56800     0.60128825E-03
     6.58000     0.57256833E-03
     6.59200     0.54560996E-03
     6.60400     0.52030071E-03
     6.61600     0.49653783E-03
     6.62800     0.47422630E-03
     6.64000     0.45327712E-03
     6.65200     0.43360597E-03
     6.66400     0.41513220E-03
     6.67600     0.39777831E-03
     6.68800     0.38146972E-03
     6.70000     0.36613488E-03
     6.71200     0.35170553E-03
     6.72400     0.33811704E-03
     6.73600     0.32530876E-03
     6.74800     0.31322427E-03
     6.76000     0.30181149E-03
     6.77200     0.29102272E-03
     6.78400     0.28081441E-03
     6.79600     0.27114692E-03
     6.80800     0.26198410E-03
     6.82000     0.25329295E-03
     6.83200     0.24504312E-03
     6.84400     0.23720654E-03
     6.85600     0.22975708E-03
     6.86800     0.22267026E-03
     6.88000     0.21592304E-03
     6.89200     0.20949368E-03
     6.90400     0.20336170E-03
     6.91600     0.19750776E-03
     6.92800     0.19191375E-03
     6.94000     0.18656268E-03
     6.95200     0.18143879E-03
     6.96400     0.17652742E-03
     6.97600     0.17181508E-03
     6.98800     0.16728932E-03
     7.00000     0.16293873E-03
     7.01200     0.15875279E-03
     7.02400     0.15472183E-03
     7.03600     0.15083694E-03
     7.04800     0.14708985E-03
     7.06000     0.14347288E-03
     7.07200     0.13997886E-03
     7.08400     0.13660108E-03
     7.09600     0.13333326E-03
     7.10800     0.13016947E-03
     7.12000     0.12710417E-03
     7.13200     0.12413213E-03
     7.14400     0.12124846E-03
     7.15600     0.11844858E-03
     7.16800     0.11572820E-03
     7.18000     0.11308332E-03
     7.19200     0.11051021E-03
     7.20400     0.10800539E-03
     7.21600     0.10556561E-03
     7.22800     0.10318783E-03
     7.24000     0.10086923E-03
     7.25200     0.98607130E-04
     7.26400     0.96399044E-04
     7.27600     0.94242616E-04
     7.28800     0.92135623E-04
     7.30000     0.90075967E-04
     7.31200     0.88061659E-04
     7.32400     0.86090817E-04
     7.33600     0.84161653E-04
     7.34800     0.82272473E-04
     7.36000     0.80421670E-04
     7.37200     0.78607720E-04
     7.38400     0.76829173E-04
     7.39600     0.75084657E-04
     7.40800     0.73372867E-04
     7.42000     0.71692561E-04
     7.43200     0.70042560E-04
     7.44400     0.68421739E-04
     7.45600     0.66829026E-04
     7.46800     0.65263397E-04
     7.48000     0.63723871E-04
     7.49200     0.62209512E-04
     7.50400     0.60719420E-04
     7.51600     0.59252731E-04
     7.52800     0.57808617E-04
     7.54000     0.56386280E-04
     7.55200     0.54984953E-04
     7.56400     0.53603897E-04
     7.57600     0.52242403E-04
     7.58800     0.50899783E-04
     7.60000     0.49575376E-04
     7.61200     0.48268544E-04
     7.62400     0.46978671E-04
     7.63600     0.45705161E-04
     7.64800     0.44447436E-04
     7.66000     0.43204938E-04
     7.67200     0.41977127E-04
     7.68400     0.40763478E-04
     7.69600     0.39563481E-04
     7.70800     0.38376642E-04
     7.72000     0.37202480E-04
     7.73200     0.36040528E-04
     7.74400     0.34890328E-04
     7.75600     0.33751439E-04
     7.76800     0.32623427E-04
     7.78000     0.31505870E-04
     7.79200     0.30398357E-04
     7.80400     0.29300485E-04
     7.81600     0.28211861E-04
     7.82800     0.27132100E-04
     7.84000     0.26060826E-04
     7.85200     0.24997671E-04
     7.86400     0.23942272E-04
     7.87600     0.22894276E-04
     7.88800     0.21853335E-04
     7.90000     0.20819106E-04
     7.91200     0.19791255E-04
     7.92400     0.18769450E-04
     7.93600     0.17753367E-04
     7.94800     0.16742686E-04
     7.96000     0.15737090E-04
     7.97200     0.14736268E-04
     7.98400     0.13739914E-04
     7.99600     0.12747722E-04
     8.00800     0.11759394E-04
     8.02000     0.10774631E-04
     8.03200     0.97931414E-05
     8.04400     0.88146324E-05
     8.05600     0.78388157E-05
     8.06800     0.68654048E-05
     8.08000     0.58941154E-05
     8.09200     0.49246647E-05
     8.10400     0.39567719E-05
     8.11600     0.29901572E-05
     8.12800     0.20245421E-05
     8.14000     0.10596491E-05
     8.15200     0.95201279E-07
     8.16400    -0.86907757E-06
     8.17600    -0.18334635E-05
     8.18800    -0.27982324E-05
     8.20000    -0.37636602E-05
     8.21200    -0.47300233E-05
     8.22400    -0.56975984E-05
     8.23600    -0.66666631E-05
     8.24800    -0.76374957E-05
     8.26000    -0.86103760E-05
     8.27200    -0.95855847E-05
     8.28400    -0.10563404E-04
     8.29600    -0.11544119E-04
     8.30800    -0.12528015E-04
     8.32000    -0.13515381E-04
     8.33200    -0.14506507E-04
     8.34400    -0.15501686E-04
     8.35600    -0.16501216E-04
     8.36800    -0.17505395E-04
     8.38000    -0.18514526E-04
     8.39200    -0.19528915E-04
     8.40400    -0.20548873E-04
     8.41600    -0.21574712E-04
     8.42800    -0.22606752E-04
     8.44000    -0.23645315E-04
     8.45200    -0.24690729E-04
     8.46400    -0.25743327E-04
     8.47600    -0.26803447E-04
     8.48800    -0.27871433E-04
     8.50000    -0.28947634E-04
     8.51200    -0.30032407E-04
     8.52400    -0.31126114E-04
     8.53600    -0.32229125E-04
     8.54800    -0.33341817E-04
     8.56000    -0.34464573E-04
     8.57200    -0.35597787E-04
     8.58400    -0.36741859E-04
     8.59600    -0.37897198E-04
     8.60800    -0.39064222E-04
     8.62000    -0.40243360E-04
     8.63200    -0.41435050E-04
     8.64400    -0.42639740E-04
     8.65600    -0.43857888E-04
     8.66800    -0.45089966E-04
     8.68000    -0.46336456E-04
     8.69200    -0.47597852E-04
     8.70400    -0.48874662E-04
     8.71600    -0.50167406E-04
     8.72800    -0.51476620E-04
     8.74000    -0.52802854E-04
     8.75200    -0.54146672E-04
     8.76400    -0.55508656E-04
     8.77600    -0.56889402E-04
     8.78800    -0.58289526E-04
     8.80000    -0.59709661E-04
     8.81200    -0.61150458E-04
     8.82400    -0.62612591E-04
     8.83600    -0.64096750E-04
     8.84800    -0.65603651E-04
     8.86000    -0.67134030E-04
     8.87200    -0.68688646E-04
     8.88400    -0.70268284E-04
     8.89600    -0.71873756E-04
     8.90800    -0.73505897E-04
     8.92000    -0.75165574E-04
     8.93200    -0.76853680E-04
     8.94400    -0.78571142E-04
     8.95600    -0.80318916E-04
     8.96800    -0.82097994E-04
     8.98000    -0.83909402E-04
     8.99200    -0.85754203E-04
     9.00400    -0.87633499E-04
