  0.396440502690391       0.363561550722683       -2.58094301530193     
   1.18932150807117      -0.966417687551665        2.08922241167599     
   1.98220251345196        1.25242878673872       -1.30155565917997     
   2.77508351883274       -1.16945748841566       0.505578058840772     
   3.56796452421352       0.819204017378461       5.988768736224048E-002
   4.36084552959430      -0.391925773188224      -0.300976544298805     
   5.15372653497509       6.249300839791536E-002  0.277114396994495     
   5.94660754035587       8.907553967390192E-002 -0.132975386224967     
   6.73948854573665      -9.057010022074594E-002  4.597299683789371E-003
   7.53236955111743       2.900735892453571E-002  4.432377844842657E-002
   8.32525055649822       1.743633948915481E-002 -2.758010483961315E-002
   9.11813156187900      -2.108114212223364E-002 -4.758214578708248E-003
   9.91101256725978       8.307443014397330E-004  1.560674837701605E-002
   10.7038935726406       1.197383471499404E-002 -3.489291038498587E-003
   11.4967745780213      -5.220696814148286E-003 -9.729614580116411E-003
   12.2896555834021      -8.270034813229960E-003  7.017049043478897E-003
   13.0825365887829       9.493765157205424E-003  6.936867403031491E-003
   13.8754175941637       4.762811237512804E-003 -1.308714430667677E-002
   14.6682985995445      -1.776404231080784E-002 -6.139595737703497E-005
   15.4611796049253       9.762582692826559E-003  2.188862862725400E-002
   16.2540606103060       2.005695540739535E-002 -2.684596332817491E-002
   17.0469416156868      -4.747065966590596E-002 -1.959521206154564E-003
   17.8398226210676       4.037824393709429E-002  5.324060893409231E-002
   18.6327036264484       1.348490087201835E-002 -9.029916946590387E-002
   19.4255846318292      -9.112343685974980E-002  7.647559075846962E-002
   20.2184656372100       0.145492887017484      -4.639479246334496E-003
   21.0113466425907      -0.137049805117791      -9.261881019831845E-002
   21.8042276479715       6.282243013875936E-002  0.161633869834220     
   22.5971086533523       3.903383365510402E-002 -0.162857901847803     
   23.3899896587331      -0.113427621801015       9.737032492964003E-002
   24.1828706641139       0.124209222367765      -5.528343329771368E-003
   24.9757516694946      -7.614311721850028E-002 -6.094051095479480E-002
   25.7686326748754       8.010360434710595E-003  7.282860978165005E-002
   26.5615136802562       3.664778342748874E-002 -3.919371049353357E-002
   27.3543946856370      -3.875521829530047E-002 -4.723130920042919E-003
   28.1472756910178       1.202656838453684E-002  2.613370307116986E-002
   28.9401566963986       1.339844583115864E-002 -1.727632271737820E-002
   29.7330377017793      -1.690729140584356E-002 -4.194454261531010E-003
   30.5259187071601       1.806082607329118E-003  1.464129710097184E-002
   31.3187997125409       1.205894769366524E-002 -5.879570268957419E-003
   32.1116807179217      -9.150780151290791E-003 -9.493388690160889E-003
   32.9045617233025      -6.600387310121367E-003  1.238738293717701E-002
   33.6974427286833       1.595250892928271E-002  2.511953377080228E-003
   34.4903237340640      -4.232811518305180E-003 -1.950299402590824E-002
   35.2832047394448      -2.110540574079216E-002  1.556878259779139E-002
   36.0760857448256       3.258610964783052E-002  1.569067344833119E-002
   36.8689667502064      -5.742018462258669E-003 -5.119624185319348E-002
   37.6618477555872      -5.442174044191762E-002  5.085434443097385E-002
   38.4547287609680       0.106808749337873       1.058227290855484E-002
   39.2476097663487      -9.748083845076290E-002 -0.115843972093211     
   40.0404907717295      -4.423816400939973E-004  0.205577240922344     
   40.8333717771103       0.158879583967328      -0.211816978307735     
   41.6262527824911      -0.302174160122806       0.104369150962812     
   42.4191337878719       0.349274697541351       8.221924836469727E-002
   43.2120147932526      -0.264664784135198      -0.262441233197319     
   44.0048957986334       8.368201079769519E-002  0.348235654820534     
   44.7977768040142       0.106174509661909      -0.301322735859828     
   45.5906578093950      -0.216733707217013       0.155053026325691     
   46.3835388147758       0.209868740535684       8.363641267301727E-003
   47.1764198201566      -0.114762691833329      -0.109287640767562     
   47.9693008255373       2.461546425305650E-003  0.116154316382994     
   48.7621818309181       6.252926168490637E-002 -5.621116211669696E-002
   49.5550628362989      -5.983958206964346E-002 -1.203976953442986E-002
   50.3479438416797       1.649040013994427E-002  4.201493444123864E-002
   51.1408248470605       2.180464023639483E-002 -2.669930625360528E-002
   51.9337058524412      -2.682866825080447E-002 -6.108412571088713E-003
   52.7265868578220       4.554836014778919E-003  2.271336513906366E-002
   53.5194678632028       1.715575985652856E-002 -1.158256394450442E-002
   54.3123488685836      -1.633120786164071E-002 -1.099864885636419E-002
   55.1052298739644      -4.075391490203228E-003  1.951082043523783E-002
   55.8981108793452       2.098676669346819E-002 -4.188052685898344E-003
   56.6909918847259      -1.423288012459855E-002 -1.959437136278989E-002
   57.4838728901067      -1.303594958152215E-002  2.549518213891094E-002
   58.2767538954875       3.496330063537563E-002 -1.536537867066038E-003
   59.0696349008683      -2.510919943055379E-002 -3.574690482064567E-002
   59.8625159062491      -1.812399780839739E-002  5.191137986727617E-002
   60.6553969116299       6.495814280583564E-002 -2.298126385962473E-002
   61.4482779170106      -7.433452723685643E-002 -4.109467111029624E-002
   62.2411589223914       2.661601446066698E-002  9.835709064829330E-002
   63.0340399277722       5.674938178514735E-002 -0.103354232252677     
   63.8269209331530      -0.123816459678134       4.201777814403267E-002
   64.6198019385338       0.127439844805392       5.399180339891948E-002
   65.4126829439146      -6.000445691200530E-002 -0.126151812483640     
   66.2055639492953      -3.874861238236447E-002  0.128975717270321     
   66.9984449546761       0.107918570241180      -6.216402420768170E-002
   67.7913259600569      -0.107391992771926      -2.897675495793057E-002
   68.5842069654377       4.502408743324661E-002  8.566811765893510E-002
   69.3770879708185       3.087118063898284E-002 -7.689496871119575E-002
   70.1699689761992      -6.785997968188594E-002  1.940337284574682E-002
   70.9628499815800       4.715051581238667E-002  3.787924965120786E-002
   71.7557309869608       5.439499304157427E-003 -5.242476253700065E-002
   72.5486119923416      -4.281695689727891E-002  1.979220632821276E-002
   73.3414929977224       3.529459690539868E-002  2.580143234510026E-002
   74.1343740031032       6.129866794508755E-003 -4.179274888119527E-002
   74.9272550084840      -4.043095483841529E-002  1.381173785435340E-002
   75.7201360138647       3.264745147777618E-002  3.145039303082851E-002
   76.5130170192455       1.397016339628095E-002 -4.845368815610666E-002
   77.3058980246263      -5.713294921282242E-002  1.320641227200578E-002
   78.0987790300071       4.919591127683534E-002  5.106510033427439E-002
   78.8916600353879       1.967504448046193E-002 -8.629611549517247E-002
   79.6845410407687      -0.103974300209589       4.430610321539295E-002
   80.4774220461494       0.128970595031996       6.864502207970544E-002
   81.2703030515302      -4.567978382273844E-002 -0.183444295717878     
   82.0631840569110      -0.124280705371557       0.207652922807355     
   82.8560650622918       0.289455612712375      -8.947916456448972E-002
   83.6489460676726      -0.340056940681396      -0.137872696802315     
   84.4418270730533       0.218930989882338       0.365248904893868     
   85.2347080784341       3.545994856166206E-002 -0.468447297143598     
   86.0275890838149      -0.304886770119381       0.383394657235192     
   86.8204700891957       0.458178059096449      -0.146792203813241     
   87.6133510945765      -0.426982182474228      -0.124605782790686     
   88.4062320999573       0.242467269848593       0.302653378581155     
   89.1991131053380      -1.117622582218396E-002 -0.320112899192437     
   89.9919941107188      -0.151770578450674       0.201630881513624     
   90.7848751160996       0.187677983062952      -3.746629922658667E-002
   91.5777561214804      -0.117581614464642      -7.814120408384413E-002
   92.3706371268612       1.443442943157832E-002  0.101483632025783     
   93.1635181322419       5.124180171767100E-002 -5.361347246232349E-002
   93.9563991376227      -5.347469950373061E-002 -8.426451696855644E-003
   94.7492801430035       1.546430042504639E-002  3.726195556480801E-002
   95.5421611483843       1.948243035522523E-002 -2.415388098616527E-002
   96.3350421537651      -2.425215403823770E-002 -5.504641368872868E-003
   97.1279231591459       4.134342497894544E-003  2.050901337421168E-002
   97.9208041645266       1.534532828871634E-002 -1.046661373007640E-002
   98.7136851699074      -1.457036897929633E-002 -9.611200467017224E-003
   99.5065661752882      -3.321300516029778E-003  1.704533635221330E-002
   100.299447180669       1.784293144982287E-002 -3.837113691928562E-003
   101.092328186050      -1.205646146920021E-002 -1.616313507583335E-002
   101.885209191431      -1.045119109748994E-002  2.077379137937512E-002
   102.678090196811       2.771541535555391E-002 -1.123940344870948E-003
   103.470971202192      -1.900332462515846E-002 -2.801872509138398E-002
   104.263852207573      -1.500133672606029E-002  3.899874204577135E-002
   105.056733212954       4.931227583746557E-002 -1.488776009738413E-002
   105.849614218334      -5.286941282971542E-002 -3.363040705250136E-002
   106.642495223715       1.405852992424958E-002  7.301831061023990E-002
   107.435376229096       4.710648386383111E-002 -7.103477205166760E-002
   108.228257234477      -9.097230944178114E-002  2.208742656088411E-002
   109.021138239858       8.638013693953601E-002  4.622294432298579E-002
   109.814019245238      -3.387997531644353E-002 -9.132972590521342E-002
   110.606900250619      -3.382057840555536E-002  8.558815610182507E-002
   111.399781256000       7.484750051225329E-002 -3.553750057196846E-002
   112.192662261381      -6.743680490388405E-002 -2.377175586277715E-002
   112.985543266762       2.371511028261491E-002  5.472455533202535E-002
   113.778424272142       2.167803222551006E-002 -4.348219106787435E-002
   114.571305277523      -3.846690653221117E-002  7.132295424937667E-003
   115.364186282904       2.203441686046432E-002  2.257346988644031E-002
   116.157067288285       6.699911534690274E-003 -2.492589634478283E-002
   116.949948293665      -2.118215626460698E-002  4.759207521591089E-003
   117.742829299046       1.164810108741786E-002  1.500802664417763E-002
   118.535710304427       8.484712826080260E-003 -1.527515443881866E-002
   119.328591309808      -1.689131500960630E-002 -2.155323482612569E-003
   120.121472315189       4.250757987533205E-003  1.715754999328282E-002
   120.914353320569       1.598064787106767E-002 -1.132913375313900E-002
   121.707234325950      -1.959801740088737E-002 -1.232574520489754E-002
   122.500115331331      -3.923546339324190E-003  2.878749628164416E-002
   123.292996336712       3.625730814463132E-002 -1.270680984656569E-002
   124.085877342092      -4.040904608198959E-002 -3.425176828316981E-002
   124.878758347473      -7.915371124306302E-003  7.474874991840411E-002
   125.671639352854       9.133023586572066E-002 -5.790552784728450E-002
   126.464520358235      -0.150008154321157      -3.986269530379289E-002
   127.257401363616       0.116230001329770       0.185169266966551     
   128.050282368996       3.577416276030917E-002 -0.295239898833676     
   128.843163374377      -0.259797569426677       0.284140683317090     
   129.636044379758       0.452719260713962      -0.120194884179434     
   130.428925385139      -0.510274994812756      -0.144410987309565     
   131.221806390520       0.389986606211929       0.395084681270424     
   132.014687395900      -0.140217744533244      -0.517153770229131     
   132.807568401281      -0.124999662365657       0.460742026352121     
   133.600449406662       0.290391491656797      -0.267141531917613     
   134.393330412043      -0.302431837349057       4.066995885483198E-002
   135.186211417423       0.191943450880256       0.114392032048004     
   135.979092422804      -4.507531164468245E-002 -0.150564972099765     
   136.771973428185      -5.454560625356729E-002  9.314763942597049E-002
   137.564854433566       7.294957158314329E-002 -1.021990431577535E-002
   138.357735438947      -3.381715006150481E-002 -3.795757291304565E-002
   139.150616444327      -1.169632629376910E-002  3.414146281578325E-002
   139.943497449708       2.658652959252832E-002 -3.088482281767451E-003
   140.736378455089      -1.017774066142042E-002 -1.838384667842702E-002
   141.529259460470      -1.159175471786895E-002  1.330190701474687E-002
   142.322140465850       1.473084137202861E-002  6.125220641978274E-003
   143.115021471231       1.243785068640574E-003 -1.553188319258494E-002
   143.907902476612      -1.594315958793165E-002  3.949476820512819E-003
   144.700783481993       1.035849456757304E-002  1.544952442752407E-002
   145.493664487374       1.253258687777532E-002 -1.862046971287080E-002
   146.286545492754      -2.820618493193115E-002 -4.325040238935506E-003
   147.079426498135       1.293464548099583E-002  3.541325253268840E-002
   147.872307503516       3.084855409730829E-002 -4.057435612873393E-002
   148.665188508897      -6.936597266668523E-002 -6.218480121871241E-004
   149.458069514277       6.032405047728089E-002  7.144680117999552E-002
   150.250950519658       1.173601734347868E-002 -0.122380758658326     
   151.043831525039      -0.115525087925044       0.104150644676710     
   151.836712530420       0.187165474148952      -6.738211067024172E-003
   152.629593535801      -0.171880548507252      -0.125693978367732     
   153.422474541181       6.450833499381113E-002  0.218271332971633     
   154.215355546562       8.150181528953165E-002 -0.213543409447094     
   155.008236551943      -0.185592242896003       0.111106117539787     
   155.801117557324       0.191812467662055       3.010028762308380E-002
   156.593998562705      -0.104969563484619      -0.129721006885911     
   157.386879568085      -1.427068615619479E-002  0.138219796718892     
   158.179760573466       9.175041393176572E-002 -6.702039146291255E-002
   158.972641578847      -8.938040899928547E-002 -2.396378210718211E-002
   159.765522584228       2.694674391639928E-002  7.120404463832947E-002
   160.558403589608       3.800798694874820E-002 -5.163275916694011E-002
   161.351284594989      -5.561715981552922E-002 -5.660022808529837E-003
   162.144165600370       1.987780368069316E-002  4.689657692258183E-002
   162.937046605751       3.090985186206930E-002 -3.775682640582560E-002
   163.729927611132      -4.824436232369718E-002 -1.013746189826781E-002
   164.522808616512       1.454005688815702E-002  5.045093820430691E-002
   165.315689621893       4.131858987912872E-002 -4.173405458701769E-002
   166.108570627274      -6.660479309824861E-002 -1.605435872991687E-002
   166.901451632655       2.841516623867305E-002  7.751587949502763E-002
   167.694332638036       5.567019186260523E-002 -8.493326060283825E-002
   168.487213643416      -0.124985431740025       1.438646526033606E-002
   169.280094648797       0.117888407615380       0.100303645548254     
   170.072975654178      -1.861984102522193E-002 -0.185556107365006     
   170.865856659559      -0.125842124845482       0.177007499585735     
   171.658737664939       0.232763840966601      -6.527582582444548E-002
   172.451618670320      -0.236854617250444      -9.429017151729177E-002
   173.244499675701       0.133061705681571       0.215465654880740     
   174.037380681082       2.042588097534544E-002 -0.235523192140120     
   174.830261686463      -0.140343142162046       0.153056568038916     
   175.623142691843       0.170699331590449      -2.459736310603491E-002
   176.416023697224      -0.113810819446658      -7.540196051500284E-002
   177.208904702605       2.113929226054653E-002  0.101972781698817     
   178.001785707986       4.615431694470112E-002 -6.233213760236457E-002
   178.794666713366      -5.720024160695514E-002  1.543435804451955E-003
   179.587547718747       2.487601608782875E-002  3.440441168272756E-002
   180.380428724128       1.275830563678230E-002 -2.951185825796976E-002
   181.173309729509      -2.512719840503025E-002  1.829942203718841E-003
   181.966190734890       1.003280775248122E-002  1.807060692374968E-002
   182.759071740270       1.105121583012139E-002 -1.410381252758081E-002
   183.551952745651      -1.584192997437048E-002 -4.667007369336578E-003
   184.344833751032       1.379387391897892E-003  1.617196314858271E-002
   185.137714756413       1.519252782463799E-002 -7.620935241818536E-003
   185.930595761794      -1.440402378117372E-002 -1.221871907549082E-002
   186.723476767174      -5.809298770121452E-003  2.133699837886853E-002
   187.516357772555       2.636358065877799E-002 -5.837577353211922E-003
   188.309238777936      -2.329689968616815E-002 -2.472160286093487E-002
   189.102119783317      -9.401433568795022E-003  4.239531438757121E-002
   189.895000788697       5.032476109414694E-002 -2.363812172952606E-002
   190.687881794078      -6.429093194062641E-002 -2.838597469389869E-002
   191.480762799459       2.993705198088730E-002  8.117960462097512E-002
   192.273643804840       4.027140962766325E-002 -9.430036394314524E-002
   193.066524810221      -0.104638683855803       4.978892228268456E-002
   193.859405815601       0.119967453877334       3.165555808382466E-002
   194.652286820982      -7.266108968487268E-002 -0.102286131624153     
   195.445167826363      -1.016422034448286E-002  0.119436894474390     
   196.238048831744       7.855853030396448E-002 -7.498865875889500E-002
   197.030929837124      -9.396820328463164E-002  4.467792621951558E-004
   197.823810842505       5.481681180921040E-002  5.606653290466410E-002
   198.616691847886       5.040237969023434E-003 -6.366025026571098E-002
   199.409572853267      -4.296764847165391E-002  2.829647122726714E-002
   200.202453858648       3.854953265430869E-002  1.560080468496915E-002
   200.995334864028      -5.586303158400183E-003 -3.374359396657127E-002
   201.788215869409      -2.285685553031608E-002  1.784529725540863E-002
   202.581096874790       2.307733916145767E-002  1.116023392670125E-002
   203.373977880171       5.591071821107315E-004 -2.383608537517042E-002
   204.166858885551      -2.175386895856484E-002  8.834857598526476E-003
   204.959739890932       1.746259493676428E-002  1.726524868747284E-002
   205.752620896313       9.712974527856331E-003 -2.548303115963708E-002
   206.545501901694      -3.195501413902651E-002  2.414559959197335E-003
   207.338382907075       2.074278898874243E-002  3.371256983146854E-002
   208.131263912455       2.421961650379028E-002 -4.478564376860338E-002
   208.924144917836      -6.718390744377520E-002  5.610136456128349E-003
   209.717025923217       6.003072441193456E-002  6.798367945226298E-002
   210.509906928598       1.756124539420232E-002 -0.120960627126224     
   211.302787933979      -0.132301619737149       9.471126715622404E-002
   212.095668939359       0.209392716212964       2.653091181151161E-002
   212.888549944740      -0.179335241350463      -0.193176148442137     
   213.681430950121       2.909526493174874E-002  0.312339327678098     
   214.474311955502       0.179404396704493      -0.304057975052241     
   215.267192960882      -0.340185132146550       0.155262693278374     
   216.060073966263       0.366206858021900       6.616000322864152E-002
   216.852954971644      -0.243607274806077      -0.249132855806498     
   217.645835977025       4.072712102040675E-002  0.305625185571721     
   218.438716982406       0.134509205250361      -0.222130873485908     
   219.231597987786      -0.200465899077099       6.303808667121662E-002
   220.024478993167       0.147415230886654       7.463217576622655E-002
   220.817359998548      -3.444497889892568E-002 -0.123067116777741     
   221.610241003929      -5.670800389413128E-002  8.051843304642725E-002
   222.403122009309       7.656936925231458E-002 -1.148278746104184E-003
   223.196003014690      -3.393363599806809E-002 -5.044117024684593E-002
   223.988884020071      -2.147744117655866E-002  4.491540936932495E-002
   224.781765025452       4.236114769464745E-002 -2.149556559222578E-003
   225.574646030833      -1.885648871904379E-002 -3.278719369559303E-002
   226.367527036213      -1.976638376353803E-002  2.939954521879236E-002
   227.160408041594       3.455395417828470E-002  4.787455692966585E-003
   227.953289046975      -1.151367616766045E-002 -3.415968136548773E-002
   228.746170052356      -2.693286681633022E-002  2.810706466734977E-002
   229.539051057737       4.224622162007245E-002  1.099676631601582E-002
   230.331932063117      -1.440282734100423E-002 -4.832820266877255E-002
   231.124813068498      -3.816877030145914E-002  4.558954170921825E-002
   231.917694073879       7.067120555846565E-002  4.984281316555990E-003
   232.710575079260      -4.762251608121053E-002 -6.975389981512614E-002
   233.503456084640      -2.578530282331926E-002  9.638714705975872E-002
   234.296337090021       0.102382338269029      -5.407643141777850E-002
   235.089218095402      -0.124912611731369      -3.949553084487113E-002
   235.882099100783       6.845775519193323E-002  0.126327832486082     
   236.674980106164       3.839616005576556E-002 -0.147213646863364     
   237.467861111544      -0.130525215436475       8.395458529825163E-002
   238.260742116925       0.150207743203947       2.631801499425052E-002
   239.053623122306      -8.670711177924370E-002 -0.115712535040432     
   239.846504127687      -1.694482680386322E-002  0.131675833776971     
   240.639385133067       9.454667948847413E-002 -7.165292184908895E-002
   241.432266138448      -0.102236831174512      -1.798506629276086E-002
   242.225147143829       4.622502311863341E-002  7.673859685627428E-002
   243.018028149210       2.605557302644459E-002 -7.227552181387015E-002
   243.810909154591      -6.297509438540924E-002  1.968246158110889E-002
   244.603790159971       4.546797445663178E-002  3.463708922330199E-002
   245.396671165352       3.165265015449840E-003 -5.018408522099288E-002
   246.189552170733      -3.963022901966885E-002  2.168660383448125E-002
   246.982433176114       3.602160093052423E-002  2.087087087429715E-002
   247.775314181495      -2.895823939432305E-004 -3.946649089094973E-002
   248.568195186875      -3.318241884375029E-002  1.961721116206422E-002
   249.361076192256       3.385595360192600E-002  1.892094992159827E-002
   250.153957197637      -9.833382884727815E-004 -4.012890062843986E-002
   250.946838203018      -3.585818993599357E-002  2.303721188549013E-002
   251.739719208398       4.192564975127405E-002  1.953689506630586E-002
   252.532600213779      -7.552883432832252E-003 -5.051816470914391E-002
   253.325481219160      -4.154616870539011E-002  3.919499885051794E-002
   254.118362224541       6.327505031667331E-002  1.162873184806553E-002
   254.911243229922      -3.329290772745106E-002 -6.453378569379592E-002
   255.704124235302      -3.270980325102717E-002  7.488898113314491E-002
   256.497005240683       8.735116525514115E-002 -2.645139105058189E-002
   257.289886246064      -8.587059574172749E-002 -5.266245738909844E-002
   258.082767251445       2.113383540508245E-002  0.107419090103975     
   258.875648256826       6.768937075599153E-002 -9.521836587514602E-002
   259.668529262206      -0.120767078665616       1.833689409120208E-002
   260.461410267587       9.983171716992387E-002  7.519714360281154E-002
   261.254291272968      -1.627248827070120E-002 -0.124032800033823     
   262.047172278349      -7.582033729957363E-002  9.626540413104248E-002
   262.840053283729       0.117052520313968      -1.164856778429429E-002
   263.632934289110      -8.367494204276651E-002 -7.276424066450329E-002
   264.425815294491       2.729367048808967E-003  0.102893651539464     
   265.218696299872       6.887167861623766E-002 -6.453134380444676E-002
   266.011577305253      -8.527766807265401E-002 -9.343260270266614E-003
   266.804458310633       4.259840112483864E-002  6.484117622387416E-002
   267.597339316014       2.188240860104389E-002 -6.655208467575835E-002
   268.390220321395      -5.983370272742414E-002  2.091585456387983E-002
   269.183101326776       4.765649400236321E-002  3.241411158286533E-002
   269.975982332156      -1.313302096913983E-003 -5.279708883067447E-002
   270.768863337537      -3.937996401578804E-002  2.895452933659601E-002
   271.561744342918       4.317470532079612E-002  1.519420800238908E-002
   272.354625348299      -1.081653001308465E-002 -4.205099858250967E-002
   273.147506353680      -2.799230575074221E-002  3.099300273040867E-002
   273.940387359060       4.026507978458222E-002  6.218062657044591E-003
   274.733268364441      -1.671570952199901E-002 -3.668177940865339E-002
   275.526149369822      -2.149290887874457E-002  3.424289267587421E-002
   276.319030375203       4.104931589324832E-002 -1.084463167418674E-003
   277.111911380583      -2.449638193893392E-002 -3.433989913528684E-002
   277.904792385964      -1.499617179588943E-002  4.109666498886037E-002
   278.697673391345       4.416796871808375E-002 -1.178876505882944E-002
   279.490554396726      -3.706960334329064E-002 -3.052778281680038E-002
   280.283435402107      -2.891019165606981E-003  5.050871469325229E-002
   281.076316407487       4.445503488130975E-002 -2.944924174028421E-002
   281.869197412868      -5.301235334248507E-002 -1.837770572930648E-002
   282.662078418249       1.888299229937979E-002  5.570488344912073E-002
   283.454959423630       3.343984234623550E-002 -5.142270299408407E-002
   284.247840429011      -6.327935542639462E-002  6.075861612323971E-003
   285.040721434391       4.559712832505964E-002  4.694245195998482E-002
   285.833602439772       8.279550984425113E-003 -6.641216512182702E-002
   286.626483445153      -5.797732875527711E-002  3.560543950218793E-002
   287.419364450534       6.470642362051103E-002  2.347477534566912E-002
   288.212245455914      -2.183601848049161E-002 -6.587840156272162E-002
   289.005126461295      -3.871294915346483E-002  5.815393744635564E-002
   289.798007466676       7.015491745257074E-002 -5.000137336382656E-003
   290.590888472057      -4.704633639332401E-002 -5.310353995550088E-002
   291.383769477438      -1.397790001158006E-002  7.044990117617278E-002
   292.176650482818       6.575859899907868E-002 -3.187474299617046E-002
   292.969531488199      -6.657756551178270E-002 -3.410637353239650E-002
   293.762412493580       1.328498114352996E-002  7.593796626503602E-002
   294.555293498961       5.443758820875014E-002 -5.861803611674792E-002
   295.348174504342      -8.318405430335564E-002 -7.902602216464154E-003
   296.141055509722       4.703407885883922E-002  7.411268499908966E-002
   296.933936515103       3.061015762236049E-002 -8.740444524399835E-002
   297.726817520484      -9.230417010587173E-002  3.277739794029194E-002
   298.519698525865       8.883414688064011E-002  5.335888872864487E-002
   299.312579531245      -1.729654493075003E-002 -0.108009354325397     
   300.105460536626      -7.415199793213548E-002  8.776398841298647E-002
   300.898341542007       0.119750936636440      -2.253803680443076E-003
   301.691222547388      -8.402277097494874E-002 -9.065992145491300E-002
   302.484103552769      -1.117424670435495E-002  0.125535353454770     
   303.276984558149       0.100991263777333      -7.661348982722117E-002
   304.069865563530      -0.123548302491217      -2.300483301122495E-002
   304.862746568911       6.420064562695454E-002  0.104690423309225     
   305.655627574292       3.425265828640061E-002 -0.113338711290791     
   306.448508579672      -0.102859990535648       4.636722924377153E-002
   307.241389585053       9.625117362392306E-002  4.570040349882099E-002
   308.034270590434      -2.433170217718147E-002 -9.704714219282867E-002
   308.827151595815      -5.693741018038754E-002  7.451625356524524E-002
   309.620032601196       8.810798267924008E-002 -3.308655678988005E-004
   310.412913606576      -5.005394352463202E-002 -6.661613394311967E-002
   311.205794611957      -2.348940849378881E-002  7.608976979313728E-002
   311.998675617338       7.332779573006837E-002 -2.404548440971717E-002
   312.791556622719      -6.077612093069279E-002 -4.568020670420550E-002
   313.584437628099      -2.867630556091461E-003  7.622511208056169E-002
   314.377318633480       6.557414841403296E-002 -4.218690121327013E-002
   315.170199638861      -7.528162616791005E-002 -3.029202264951734E-002
   315.963080644242       2.089495811680956E-002  8.323217396754026E-002
   316.755961649623       5.781602767740384E-002 -7.147199528743210E-002
   317.548842655003      -9.933370282389981E-002 -1.584278833406167E-003
   318.341723660384       6.694090300901059E-002  8.446328530213630E-002
   319.134604665765       2.220756101275332E-002 -0.114586458194261     
   319.927485671146      -0.107573142607573       6.457362844058911E-002
   320.720366676527       0.128033861634398       3.637731572295737E-002
   321.513247681907      -6.582506785924806E-002 -0.121978966980830     
   322.306128687288      -4.034763222421055E-002  0.135134099724020     
   323.099009692669       0.122292821337988      -6.750980979657339E-002
   323.891890698050      -0.129526588684493      -3.575087336679339E-002
   324.684771703430       6.269081384191524E-002  0.108609510825653     
   325.477652708811       2.985238103095843E-002 -0.109633746857442     
   326.270533714192      -8.804845158857859E-002  4.779563289813392E-002
   327.063414719573       8.150241873423136E-002  2.837174750072109E-002
   327.856295724954      -2.663326018395846E-002 -6.799580998487736E-002
   328.649176730334      -3.055358808427382E-002  5.292923465530151E-002
   329.442057735715       5.065092983098388E-002 -5.772304439811447E-003
   330.234938741096      -2.794895173117767E-002 -3.233437367587234E-002
   331.027819746477      -1.056555575731445E-002  3.474922211535847E-002
   331.820700751857       3.067760206811634E-002 -7.327035012352814E-003
   332.613581757238      -1.892644599712823E-002 -2.089724781003340E-002
   333.406462762619      -9.063960568625299E-003  2.447379734381708E-002
   334.199343768000       2.496673371740883E-002 -2.812809093179951E-003
   334.992224773381      -1.370644755660076E-002 -2.116274742731475E-002
   335.785105778761      -1.330374651324388E-002  2.278188221731841E-002
   336.577986784142       2.869318305220013E-002  1.346716773705786E-003
   337.370867789523      -1.431300892178618E-002 -2.908298286560613E-002
   338.163748794904      -2.063043021516751E-002  3.153848082994741E-002
   338.956629800285       4.481069070936919E-002  4.202771259804935E-004
   339.749510805665      -3.051851084229611E-002 -4.459147566636283E-002
   340.542391811046      -2.056301964771029E-002  6.215531761980028E-002
   341.335272816427       7.353480706288378E-002 -2.877090273774986E-002
   342.128153821808      -8.392310461504901E-002 -4.225157203017090E-002
   342.921034827188       3.230246890470574E-002  0.104520580225524     
   343.713915832569       5.673645641382415E-002 -0.109994022118401     
   344.506796837950      -0.127570764008345       4.510655056131356E-002
   345.299677843331       0.131085307765916       5.574461680656103E-002
   346.092558848712      -6.016116293518708E-002 -0.131018077539696     
   346.885439854092      -4.325620063957034E-002  0.133534770744628     
   347.678320859473       0.115714122925495      -6.314265668194552E-002
   348.471201864854      -0.115278822866811      -3.323594302939148E-002
   349.264082870235       4.928697885496441E-002  9.441822750065984E-002
   350.056963875615       3.287953904795508E-002 -8.694923193365585E-002
   350.849844880996      -7.612145567800202E-002  2.609405909531889E-002
   351.642725886377       5.810821582304022E-002  3.854764514861985E-002
   352.435606891758      -2.071975444402980E-003 -6.100584893354271E-002
   353.228487897139      -4.422152344236274E-002  3.173366715780860E-002
   354.021368902519       4.614276160803054E-002  1.870284479652644E-002
   354.814249907900      -7.504742000917450E-003 -4.636768140174603E-002
   355.607130913281      -3.515825792911563E-002  2.942744531834702E-002
   356.400011918662       4.373230465683822E-002  1.534554154692877E-002
   357.192892924042      -1.000205071680106E-002 -4.740624159339242E-002
   357.985773929423      -3.744307564474079E-002  3.635338037847442E-002
   358.778654934804       5.629474646784192E-002  1.218215790330919E-002
   359.571535940185      -2.540165037542544E-002 -5.946978396711031E-002
   360.364416945566      -3.621908961218934E-002  6.367098021713123E-002
   361.157297950946       8.182355863541420E-002 -1.379704690972823E-002
   361.950178956327      -7.208525765421520E-002 -5.903707642252945E-002
   362.743059961708       6.313932164703485E-003  0.102662076443018     
   363.535940967089       7.445712302151059E-002 -8.207761975699404E-002
   364.328821972470      -0.115690943235555       6.264506125423727E-003
   365.121702977850       8.836064308331736E-002  7.681191519892454E-002
   365.914583983231      -9.920413097201913E-003 -0.113700951109579     
   366.707464988612      -6.822351328984447E-002  8.288988728444009E-002
   367.500345993993       9.727500224625688E-002 -8.798180600912267E-003
   368.293226999373      -6.456465025101363E-002 -5.732145067561073E-002
   369.086108004754      -1.915166524020726E-004  7.462616624069873E-002
   369.878989010135       4.924350332786670E-002 -4.020656673708197E-002
   370.671870015516      -5.233995393747334E-002 -1.270354707180635E-002
   371.464751020897       1.655747561601400E-002  4.272410918210579E-002
   372.257632026277       2.334474977659570E-002 -3.189370010422066E-002
   373.050513031658      -3.472160312859131E-002 -3.390661037536805E-003
   373.843394037039       1.261815636746772E-002  2.914929077078213E-002
   374.636275042420       1.880894452008847E-002 -2.339777212026218E-002
   375.429156047801      -2.897072270834007E-002 -5.972149693642076E-003
   376.222037053181       8.099666982713765E-003  2.934415821968595E-002
   377.014918058562       2.389993619263138E-002 -2.231509218289075E-002
   377.807799063943      -3.469878496238383E-002 -1.145112837051067E-002
   378.600680069324       8.810641667751418E-003  4.131402688742603E-002
   379.393561074704       3.585286688337787E-002 -3.505479872454959E-002
   380.186442080085      -5.943909668226199E-002 -1.157678219441698E-002
   380.979323085466       3.236548899498851E-002  6.617105251011564E-002
   381.772204090847       3.687086650991264E-002 -8.136009884501891E-002
   382.565085096228      -0.101946610788287       3.217019407048832E-002
   383.357966101608       0.109933063780559       5.975677744559746E-002
   384.150847106989      -4.182697819236270E-002 -0.135854998597911     
   384.943728112370      -6.842626936527574E-002  0.140026402569297     
   385.736609117751       0.152938244303232      -6.014445914402398E-002
   386.529490123131      -0.155508241023335      -5.944733798178037E-002
   387.322371128512       7.171255326134210E-002  0.145543392642464     
   388.115252133893       4.617031159437446E-002 -0.145537067568335     
   388.908133139274      -0.124189984636945       6.363423514287690E-002
   389.701014144655       0.117322001876318       4.254723750263910E-002
   390.493895150035      -3.942887831983707E-002 -0.102895422391524     
   391.286776155416      -4.890214580749306E-002  8.375731295196491E-002
   392.079657160797       8.541550927261780E-002 -9.524984800087207E-003
   392.872538166178      -5.085011816385634E-002 -5.836244741432296E-002
   393.665419171558      -1.953811462530589E-002  6.874583913801974E-002
   394.458300176939       6.547985794852165E-002 -1.877090532543445E-002
   395.251181182320      -4.939587687257962E-002 -4.579215342169287E-002
   396.044062187701      -1.412703879384801E-002  6.782342612273377E-002
   396.836943193082       6.973105235754540E-002 -2.511113338090895E-002
   397.629824198462      -6.522774019478662E-002 -5.008532490810577E-002
   398.422705203843      -5.231136466743252E-003  9.399167903911443E-002
   399.215586209224       9.222091453337382E-002 -6.050693438182881E-002
   400.008467214605      -0.124720260266039      -4.006869770877162E-002
   400.801348219986       6.286980555006254E-002  0.142726657625723     
   401.594229225366       6.873926418288678E-002 -0.170606236028620     
   402.387110230747      -0.192618927891698       8.940970514624037E-002
   403.179991236128       0.228182279634016       6.540267956045122E-002
   403.972872241509      -0.145646705706954      -0.208605842422659     
   404.765753246890      -1.327282871856554E-002  0.259173853841958     
   405.558634252270       0.161889502547642      -0.191365926559362     
   406.351515257651      -0.223518444346454       4.871627456623370E-002
   407.144396263032       0.177325613242112       8.688095458435448E-002
   407.937277268413      -6.544864866654933E-002 -0.148019969094566     
   408.730158273793      -4.022676057262135E-002  0.120260377656143     
   409.523039279174       8.595200003546946E-002 -4.247273671834650E-002
   410.315920284555      -6.549353644854598E-002 -2.672793228678292E-002
   411.108801289936       1.399757836147159E-002  4.965513271143919E-002
   411.901682295317       2.422403289066655E-002 -2.889158153942905E-002
   412.694563300697      -2.762697884219555E-002 -4.519895364785269E-003
   413.487444306078       6.629975793968474E-003  2.034680108044176E-002
   414.280325311459       1.257821060290031E-002 -1.150585944347796E-002
   415.073206316840      -1.290119182997234E-002 -6.161513345043381E-003
   415.866087322220      -1.156504557996679E-003  1.267249172356381E-002
   416.658968327601       1.171526517758496E-002 -2.955118601109169E-003
   417.451849332982      -6.750921119829103E-003 -1.023811192766485E-002
   418.244730338363      -7.936270899326688E-003  1.066262002971665E-002
   419.037611343744       1.477964317030468E-002  4.025150910313841E-003
   419.830492349124      -2.720420103526617E-003 -1.843328264660215E-002
   420.623373354505      -1.944299873083311E-002  1.353002833372265E-002
   421.416254359886       2.807398739363268E-002  1.336747764521409E-002
   422.209135365267      -5.642688737916020E-003 -4.119660143016403E-002
   423.002016370648      -3.968296301694340E-002  3.929638268056002E-002
   423.794897376028       7.401732042342685E-002  6.196628020333063E-003
   424.587778381409      -6.077049208103492E-002 -7.499822934301023E-002
   425.380659386790      -9.084963395330103E-003  0.120807637219100     
   426.173540392171       0.103386871671265      -0.102288435105863     
   426.966421397551      -0.165124372490452       1.541799942011554E-002
   427.759302402932       0.149860360590052       9.772673334626369E-002
   428.552183408313      -5.822116548344915E-002 -0.172871174475576     
   429.345064413694      -6.090351287762733E-002  0.165259693672967     
   430.137945419075       0.140572366450730      -8.013738719041627E-002
   430.930826424455      -0.139245290804302      -3.015674169072303E-002
   431.723707429836       6.711462314355543E-002  0.101082763941709     
   432.516588435217       2.312960034087511E-002 -9.832687669269868E-002
   433.309469440598      -7.399590305263301E-002  3.792936847354257E-002
   434.102350445978       6.190561153342454E-002  2.928503887861402E-002
   434.895231451359      -9.439200148512173E-003 -5.629373207417743E-002
   435.688112456740      -3.620795503128962E-002  3.250241637490892E-002
   436.480993462121       4.077202986493551E-002  1.304250643438922E-002
   437.273874467502      -7.514118934029067E-003 -3.842612128755336E-002
   438.066755472882      -2.911937453707777E-002  2.350000197436045E-002
   438.859636478263       3.433012317047069E-002  1.499042581130203E-002
   439.652517483644      -2.897628454479219E-003 -3.917211212112151E-002
   440.445398489025      -3.608556709909028E-002  2.342264787182554E-002
   441.238279494405       4.372154173724413E-002  2.203733268735095E-002
   442.031160499786      -5.510287527702648E-003 -5.720933317384237E-002
   442.824041505167      -5.273725538327820E-002  4.442209592101088E-002
   443.616922510548       8.162725386707625E-002  1.839283896018552E-002
   444.409803515929      -4.637665394800515E-002 -9.037303160257058E-002
   445.202684521309      -4.246629117664952E-002  0.114387126758329     
   445.995565526690       0.130617738897888      -5.950189605161103E-002
   446.788446532071      -0.155290046752092      -5.225997494220480E-002
   447.581327537452       8.983668691913999E-002  0.156166095339996     
   448.374208542832       3.461635741602629E-002 -0.186610918598444     
   449.167089548213      -0.147219687713302       0.121628024957926     
   449.959970553594       0.183369141559074       1.520299055033945E-003
   450.752851558975      -0.126631805745511      -0.110891624377680     
   451.545732564356       1.758835622917812E-002  0.147199647683832     
   452.338613569736       7.563092714478380E-002 -0.100763806200082     
   453.131494575117      -0.103239662994911       1.318564504018972E-002
   453.924375580498       6.363655770501009E-002  5.527233081948200E-002
   454.717256585879       2.171314922790310E-003 -6.751814257648033E-002
   455.510137591260      -4.452966200369714E-002  3.073332045079411E-002
   456.303018596640       4.067378576794387E-002  1.607326872303090E-002
   457.095899602021      -6.129087605434567E-003 -3.548755396756859E-002
   457.888780607402      -2.368765511429624E-002  1.916299474077997E-002
   458.681661612783       2.443437693141504E-002  1.071144584499252E-002
   459.474542618163      -9.830981265562203E-004 -2.429762653888385E-002
   460.267423623544      -2.055643852039371E-002  1.067606246005699E-002
   461.060304628925       1.826839596718337E-002  1.414255434966409E-002
   461.853185634306       5.306281194071286E-003 -2.353359478919884E-002
   462.646066639687      -2.563269564121518E-002  5.961061450237106E-003
   463.438947645067       1.925342901909056E-002  2.283650338643554E-002
   464.231828650448       1.266145437841219E-002 -3.270824904766904E-002
   465.024709655829      -4.172306387261093E-002  7.009494154734043E-003
   465.817590661210       3.511365554504876E-002  3.837044100175482E-002
   466.610471666591       1.371806009297043E-002 -6.314566512855985E-002
   467.403352671971      -7.266401176794361E-002  3.450421565735146E-002
   468.196233677352       9.044819495748085E-002  4.149967652879932E-002
   468.989114682733      -3.637016385817383E-002 -0.115857484226031     
   469.781995688114      -6.956871747029425E-002  0.127454686083375     
   470.574876693494       0.161963871959224      -4.912211034991278E-002
   471.367757698875      -0.171513489601962      -8.527126059280722E-002
   472.160638704256       7.545696047958410E-002  0.195923932462490     
   472.953519709637       7.990677494704092E-002 -0.207847524900770     
   473.746400715018      -0.203898857374578       0.103437111367601     
   474.539281720398       0.219374518982803       6.090976553332970E-002
   475.332162725779      -0.114905409206351      -0.188257157204292     
   476.125043731160      -4.562132278756804E-002  0.203655449475285     
   476.917924736541       0.164044824734332      -0.103297461479787     
   477.710805741921      -0.172247506685423      -4.379754162923821E-002
   478.503686747302       7.572753445851066E-002  0.142925315847781     
   479.296567752683       5.324136742304435E-002 -0.136979951406024     
   480.089448758064      -0.127215048701003       4.219982833158288E-002
   480.882329763445       0.103216107753277       6.742065109096625E-002
   481.675210768825      -8.929199314000026E-003 -0.114469983555746     
   482.468091774206      -8.138428397372659E-002  7.187047669754969E-002
   483.260972779587       0.102172957314737       2.153957211022411E-002
   484.053853784968      -4.268802876432004E-002 -9.280995614745041E-002
   484.846734790349      -4.838501701689785E-002  8.930127145141298E-002
   485.639615795729       0.101152951963145      -1.585786831218062E-002
   486.432496801110      -7.628319859361407E-002 -7.113464986222631E-002
   487.225377806491      -7.480599653023404E-003  0.106654908454986     
   488.018258811872       8.881105385476050E-002 -6.446076889795455E-002
   488.811139817252      -0.109307068237711      -2.527269716278143E-002
   489.604020822633       5.503127201811198E-002  9.942745925746337E-002
   490.396901828014       3.545493277250227E-002 -0.107796965064156     
   491.189782833395      -0.100566269633257       4.748374427654763E-002
   491.982663838776       9.960675038048100E-002  3.793844039882260E-002
   492.775544844156      -3.910888459815669E-002 -9.165532853495952E-002
   493.568425849537      -3.574722609452782E-002  8.343670368958617E-002
   494.361306854918       7.577064931746730E-002 -2.741290612724972E-002
   495.154187860299      -6.164420990489510E-002 -3.278644850503888E-002
   495.947068865680       1.310464864754912E-002  5.777513745923313E-002
   496.739949871060       3.047483968813366E-002 -3.893583475828582E-002
   497.532830876441      -4.081933556312701E-002 -5.265853152851743E-004
   498.325711881822       1.903230859212780E-002  2.764894320799371E-002
   499.118592887203       1.050434956822979E-002 -2.562011214702914E-002
   499.911473892583      -2.282577911688658E-002  3.517502705739698E-003
   500.704354897964       1.203223754223687E-002  1.550707876333747E-002
   501.497235903345       7.222275600959538E-003 -1.552451873405003E-002
   502.290116908726      -1.543252115009698E-002  2.106261957583594E-004
   503.082997914107       6.194723426191729E-003  1.306012718885222E-002
   503.875878919487       9.214082918759921E-003 -1.070399393830452E-002
   504.668759924868      -1.379973085982603E-002 -4.223852147003107E-003
   505.461640930249       1.883076995873910E-003  1.531441905605983E-002
   506.254521935630       1.463439955675168E-002 -9.105547729399881E-003
   507.047402941010      -1.702385129090044E-002 -1.058533882931710E-002
   507.840283946391      -1.609246879144419E-003  2.409188378214741E-002
   508.633164951772       2.678018036583652E-002 -1.331150863722931E-002
   509.426045957153      -3.243213916071300E-002 -1.935366563433790E-002
   510.218926962534       3.852896257309457E-003  4.801862091194532E-002
   511.011807967914       4.513315446710537E-002 -4.168682485204900E-002
   511.804688973295      -7.707174995187074E-002 -8.757942815805506E-003
   512.597569978676       5.745711021071412E-002  7.692932804082471E-002
   513.390450984057       1.584127575446208E-002 -0.114451920390364     
   514.183331989437      -0.104026344106714       8.479637849581585E-002
   514.976212994818       0.149541593468707       6.674744395827187E-003
   515.769094000199      -0.115620709665863      -0.110349313748635     
   516.561975005580       1.500667767894649E-002  0.162551601224305     
