     4.00000     0.76557212E-01
     4.01200     0.79498153E-01
     4.02400     0.82463735E-01
     4.03600     0.85455010E-01
     4.04800     0.88473052E-01
     4.06000     0.91518959E-01
     4.07200     0.94593850E-01
     4.08400     0.97698872E-01
     4.09600     0.10083519    
     4.10800     0.10400402    
     4.12000     0.10720656    
     4.13200     0.11044409    
     4.14400     0.11371788    
     4.15600     0.11702927    
     4.16800     0.12037959    
     4.18000     0.12377025    
     4.19200     0.12720266    
     4.20400     0.13067829    
     4.21600     0.13419865    
     4.22800     0.13776529    
     4.24000     0.14137980    
     4.25200     0.14504382    
     4.26400     0.14875904    
     4.27600     0.15252719    
     4.28800     0.15635008    
     4.30000     0.16022955    
     4.31200     0.16416750    
     4.32400     0.16816590    
     4.33600     0.17222680    
     4.34800     0.17635227    
     4.36000     0.18054450    
     4.37200     0.18480573    
     4.38400     0.18913827    
     4.39600     0.19354452    
     4.40800     0.19802698    
     4.42000     0.20258820    
     4.43200     0.20723086    
     4.44400     0.21195772    
     4.45600     0.21677164    
     4.46800     0.22167559    
     4.48000     0.22667266    
     4.49200     0.23176606    
     4.50400     0.23695910    
     4.51600     0.24225525    
     4.52800     0.24765810    
     4.54000     0.25317139    
     4.55200     0.25879902    
     4.56400     0.26454503    
     4.57600     0.27041364    
     4.58800     0.27640926    
     4.60000     0.28253648    
     4.61200     0.28880007    
     4.62400     0.29520504    
     4.63600     0.30175659    
     4.64800     0.30846019    
     4.66000     0.31532152    
     4.67200     0.32234654    
     4.68400     0.32954150    
     4.69600     0.33691291    
     4.70800     0.34446762    
     4.72000     0.35221280    
     4.73200     0.36015597    
     4.74400     0.36830503    
     4.75600     0.37666827    
     4.76800     0.38525439    
     4.78000     0.39407256    
     4.79200     0.40313243    
     4.80400     0.41244413    
     4.81600     0.42201838    
     4.82800     0.43186645    
     4.84000     0.44200025    
     4.85200     0.45243234    
     4.86400     0.46317603    
     4.87600     0.47424536    
     4.88800     0.48565522    
     4.90000     0.49742139    
     4.91200     0.50956060    
     4.92400     0.52209060    
     4.93600     0.53503028    
     4.94800     0.54839971    
     4.96000     0.56222028    
     4.97200     0.57651479    
     4.98400     0.59130756    
     4.99600     0.60662460    
     5.00800     0.62249374    
     5.02000     0.63894477    
     5.03200     0.65600969    
     5.04400     0.67372286    
     5.05600     0.69212125    
     5.06800     0.71124473    
     5.08000     0.73113631    
     5.09200     0.75184257    
     5.10400     0.77341395    
     5.11600     0.79590526    
     5.12800     0.81937614    
     5.14000     0.84389170    
     5.15200     0.86952317    
     5.16400     0.89634869    
     5.17600     0.92445432    
     5.18800     0.95393510    
     5.20000     0.98489642    
     5.21200      1.0174556    
     5.22400      1.0517441    
     5.23600      1.0879095    
     5.24800      1.1261190    
     5.26000      1.1665624    
     5.27200      1.2094577    
     5.28400      1.2550558    
     5.29600      1.3036483    
     5.30800      1.3555757    
     5.32000      1.4112391    
     5.33200      1.4711130    
     5.34400      1.5357619    
     5.35600      1.6058604    
     5.36800      1.6822159    
     5.38000      1.7657969    
     5.39200      1.8577642    
     5.40400      1.9595063    
     5.41600      2.0726780    
     5.42800      2.1992414    
     5.44000      2.3415064    
     5.45200      2.5021703    
     5.46400      2.6843519    
     5.47600      2.8916169    
     5.48800      3.1279906    
     5.50000      3.3979543    
     5.51200      3.7064201    
     5.52400      4.0586817    
     5.53600      4.4603386    
     5.54800      4.9171930    
     5.56000      5.4351213    
     5.57200      6.0199240    
     5.58400      6.6771598    
     5.59600      7.4119741    
     5.60800      8.2289318    
     5.62000      9.1318650    
     5.63200      10.123749    
     5.64400      11.206616    
     5.65600      12.381509    
     5.66800      13.648493    
     5.68000      15.006702    
     5.69200      16.454437    
     5.70400      17.989283    
     5.71600      19.608253    
     5.72800      21.307924    
     5.74000      23.084558    
     5.75200      24.934187    
     5.76400      26.852663    
     5.77600      28.835650    
     5.78800      30.878578    
     5.80000      32.976555    
     5.81200      35.124253    
     5.82400      37.315794    
     5.83600      39.544645    
     5.84800      41.803549    
     5.86000      44.084508    
     5.87200      46.378821    
     5.88400      48.677190    
     5.89600      50.969873    
     5.90800      53.246891    
     5.92000      55.498251    
     5.93200      57.714180    
     5.94400      59.885328    
     5.95600      62.002945    
     5.96800      64.058988    
     5.98000      66.046181    
     5.99200      67.958002    
     6.00400      69.788622    
     6.01600      71.532807    
     6.02800      73.185797    
     6.04000      74.743186    
     6.05200      76.200825    
     6.06400      77.554761    
     6.07600      78.801215    
     6.08800      79.936609    
     6.10000      80.957638    
     6.11200      81.861369    
     6.12400      82.645353    
     6.13600      83.307744    
     6.14800      83.847391    
     6.16000      84.263906    
     6.17200      84.557691    
     6.18400      84.729916    
     6.19600      84.782465    
     6.20800      84.717847    
     6.22000      84.539083    
     6.23200      84.249586    
     6.24400      83.853048    
     6.25600      83.353343    
     6.26800      82.754453    
     6.28000      82.060425    
     6.29200      81.275354    
     6.30400      80.403390    
     6.31600      79.448766    
     6.32800      78.415824    
     6.34000      77.309051    
     6.35200      76.133102    
     6.36400      74.892800    
     6.37600      73.593131    
     6.38800      72.239213    
     6.40000      70.836248    
     6.41200      69.389469    
     6.42400      67.904077    
     6.43600      66.385184    
     6.44800      64.837757    
     6.46000      63.266579    
     6.47200      61.676221    
     6.48400      60.071028    
     6.49600      58.455117    
     6.50800      56.832389    
     6.52000      55.206542    
     6.53200      53.581093    
     6.54400      51.959388    
     6.55600      50.344621    
     6.56800      48.739839    
     6.58000      47.147940    
     6.59200      45.571672    
     6.60400      44.013619    
     6.61600      42.476191    
     6.62800      40.961612    
     6.64000      39.471909    
     6.65200      38.008904    
     6.66400      36.574217    
     6.67600      35.169262    
     6.68800      33.795258    
     6.70000      32.453243    
     6.71200      31.144081    
     6.72400      29.868485    
     6.73600      28.627025    
     6.74800      27.420142    
     6.76000      26.248165    
     6.77200      25.111313    
     6.78400      24.009707    
     6.79600      22.943371    
     6.80800      21.912238    
     6.82000      20.916153    
     6.83200      19.954874    
     6.84400      19.028078    
     6.85600      18.135363    
     6.86800      17.276255    
     6.88000      16.450216    
     6.89200      15.656647    
     6.90400      14.894899    
     6.91600      14.164282    
     6.92800      13.464067    
     6.94000      12.793501    
     6.95200      12.151806    
     6.96400      11.538187    
     6.97600      10.951837    
     6.98800      10.391940    
     7.00000      9.8576736    
     7.01200      9.3482107    
     7.02400      8.8627233    
     7.03600      8.4003832    
     7.04800      7.9603646    
     7.06000      7.5418461    
     7.07200      7.1440127    
     7.08400      6.7660581    
     7.09600      6.4071871    
     7.10800      6.0666174    
     7.12000      5.7435818    
     7.13200      5.4373296    
     7.14400      5.1471284    
     7.15600      4.8722648    
     7.16800      4.6120454    
     7.18000      4.3657972    
     7.19200      4.1328681    
     7.20400      3.9126269    
     7.21600      3.7044632    
     7.22800      3.5077876    
     7.24000      3.3220314    
     7.25200      3.1466462    
     7.26400      2.9811045    
     7.27600      2.8248988    
     7.28800      2.6775417    
     7.30000      2.5385660    
     7.31200      2.4075239    
     7.32400      2.2839872    
     7.33600      2.1675467    
     7.34800      2.0578118    
     7.36000      1.9544102    
     7.37200      1.8569871    
     7.38400      1.7652051    
     7.39600      1.6787430    
     7.40800      1.5972959    
     7.42000      1.5205741    
     7.43200      1.4483026    
     7.44400      1.3802207    
     7.45600      1.3160814    
     7.46800      1.2556505    
     7.48000      1.1987067    
     7.49200      1.1450406    
     7.50400      1.0944543    
     7.51600      1.0467609    
     7.52800      1.0017842    
     7.54000     0.95935786    
     7.55200     0.91932538    
     7.56400     0.88153920    
     7.57600     0.84586047    
     7.58800     0.81215858    
     7.60000     0.78031071    
     7.61200     0.75020142    
     7.62400     0.72172225    
     7.63600     0.69477135    
     7.64800     0.66925309    
     7.66000     0.64507775    
     7.67200     0.62216118    
     7.68400     0.60042447    
     7.69600     0.57979367    
     7.70800     0.56019950    
     7.72000     0.54157708    
     7.73200     0.52386567    
     7.74400     0.50700842    
     7.75600     0.49095214    
     7.76800     0.47564710    
     7.78000     0.46104675    
     7.79200     0.44710759    
     7.80400     0.43378897    
     7.81600     0.42105285    
     7.82800     0.40886372    
     7.84000     0.39718836    
     7.85200     0.38599574    
     7.86400     0.37525688    
     7.87600     0.36494468    
     7.88800     0.35503382    
     7.90000     0.34550067    
     7.91200     0.33632312    
     7.92400     0.32748053    
     7.93600     0.31895360    
     7.94800     0.31072431    
     7.96000     0.30277580    
     7.97200     0.29509232    
     7.98400     0.28765914    
     7.99600     0.28046247    
     8.00800     0.27348943    
     8.02000     0.26672797    
     8.03200     0.26016678    
     8.04400     0.25379529    
     8.05600     0.24760359    
     8.06800     0.24158242    
     8.08000     0.23572305    
     8.09200     0.23001732    
     8.10400     0.22445758    
     8.11600     0.21903662    
     8.12800     0.21374768    
     8.14000     0.20858442    
     8.15200     0.20354084    
     8.16400     0.19861133    
     8.17600     0.19379059    
     8.18800     0.18907360    
     8.20000     0.18445567    
     8.21200     0.17993235    
     8.22400     0.17549942    
     8.23600     0.17115292    
     8.24800     0.16688907    
     8.26000     0.16270433    
     8.27200     0.15859531    
     8.28400     0.15455880    
     8.29600     0.15059177    
     8.30800     0.14669132    
     8.32000     0.14285470    
     8.33200     0.13907928    
     8.34400     0.13536257    
     8.35600     0.13170218    
     8.36800     0.12809584    
     8.38000     0.12454137    
     8.39200     0.12103668    
     8.40400     0.11757977    
     8.41600     0.11416874    
     8.42800     0.11080174    
     8.44000     0.10747701    
     8.45200     0.10419285    
     8.46400     0.10094762    
     8.47600     0.97739750E-01
     8.48800     0.94567712E-01
     8.50000     0.91430040E-01
     8.51200     0.88325313E-01
     8.52400     0.85252156E-01
     8.53600     0.82209237E-01
     8.54800     0.79195267E-01
     8.56000     0.76208990E-01
     8.57200     0.73249191E-01
     8.58400     0.70314683E-01
     8.59600     0.67404315E-01
     8.60800     0.64516963E-01
     8.62000     0.61651531E-01
     8.63200     0.58806950E-01
     8.64400     0.55982175E-01
     8.65600     0.53176182E-01
     8.66800     0.50387970E-01
     8.68000     0.47616559E-01
     8.69200     0.44860985E-01
     8.70400     0.42120303E-01
     8.71600     0.39393586E-01
     8.72800     0.36679918E-01
     8.74000     0.33978401E-01
     8.75200     0.31288147E-01
     8.76400     0.28608283E-01
     8.77600     0.25937944E-01
     8.78800     0.23276278E-01
     8.80000     0.20622441E-01
     8.81200     0.17975596E-01
     8.82400     0.15334917E-01
     8.83600     0.12699581E-01
     8.84800     0.10068773E-01
     8.86000     0.74416846E-02
     8.87200     0.48175090E-02
     8.88400     0.21954448E-02
     8.89600    -0.42530650E-03
     8.90800    -0.30455412E-02
     8.92000    -0.56660539E-02
     8.93200    -0.82876384E-02
     8.94400    -0.10911088E-01
     8.95600    -0.13537196E-01
     8.96800    -0.16166758E-01
     8.98000    -0.18800570E-01
     8.99200    -0.21439431E-01
     9.00400    -0.24084143E-01
