  -171.924243689677      -4.100953471110602E-191  6.278436581276805E-191
  -171.133787396851       1.145388721524679E-162 -3.803287040542631E-163
  -170.343331104025      -1.039601888749583E-160 -4.222431549340967E-161
  -169.552874811199       2.339990694771385E-159  5.050530240897694E-159
  -168.762418518373       7.557477202040215E-158 -1.954249162314066E-157
  -167.971962225547      -6.354875751499926E-156  2.272015519287298E-156
  -167.181505932720       1.664154896414113E-154  1.068988181712371E-154
  -166.391049639894      -1.786113636564883E-154 -5.480881180485095E-153
  -165.600593347068      -1.228873481208266E-151  8.218496642864484E-152
  -164.810137054242       3.539567879985120E-150  1.763029944598619E-150
  -164.019680761416      -3.261205664171060E-150 -1.064317137099797E-148
  -163.229224468590      -2.544100991952915E-147  1.422062988306854E-147
  -162.438768175764       6.808300855157077E-146  4.481446968064892E-146
  -161.648311882938       2.089001686569808E-145 -2.321721307490687E-144
  -160.857855590112      -6.182160184392502E-143  2.826853382251263E-143
  -160.067399297286       1.673421967331086E-141  1.110616292423644E-141
  -159.276943004459      -9.742857370710941E-142 -5.956004220819924E-140
  -158.486486711633      -1.373186552542608E-138  1.090244131129444E-138
  -157.696030418807       4.965779169525544E-137  9.539935406732318E-138
  -156.905574125981      -7.664989512598251E-136 -1.183212306305615E-135
  -156.115117833155      -6.740496296397286E-135  3.689406305315487E-134
  -155.324661540329       7.328223336047345E-133 -5.899462538445762E-133
  -154.534205247503      -2.203196396579435E-131 -3.347198806307375E-134
  -153.743748954677       3.776436692378394E-130  2.934047749383784E-130
  -152.953292661851      -2.438502282802711E-129 -9.266652304656615E-129
  -152.162836369024      -6.974833069471885E-128  1.628229480495430E-127
  -151.372380076198       2.688024174284529E-126 -1.399157468496684E-126
  -150.581923783372      -4.686333492248150E-125 -1.168855167230025E-125
  -149.791467490546       3.795241386708278E-124  6.169259396233891E-124
  -149.001011197720       2.896201251719549E-123 -9.936948048835329E-123
  -148.210554904894      -1.325447241315538E-121  5.374092706166533E-122
  -147.420098612068       1.617153376719492E-120  1.075174807558135E-120
  -146.629642319242       1.504479892695989E-120 -2.629367529828607E-119
  -145.839186026416      -3.327835721947670E-118  1.437112893678444E-118
  -145.048729733590       3.741416602141607E-117  3.521052383660172E-117
  -144.258273440763       2.904160468126817E-116 -7.015193308761500E-116
  -143.467817147937      -1.178984842506279E-114 -7.274581567522214E-116
  -142.677360855111       4.878666951608888E-114  1.884736389069072E-113
  -141.886904562285       2.871040156852357E-112 -1.836462225843396E-112
  -141.096448269459      -4.968592075307321E-111 -3.920639304518478E-111
  -140.305991976633      -3.666754546548868E-110  1.185154893164204E-109
  -139.515535683807       2.527112201877960E-108 -2.975449606583948E-109
  -138.725079390981      -3.031648532750308E-107 -4.465836355574570E-107
  -137.934623098155      -4.796695008831132E-106  1.064161896962268E-105
  -137.144166805329       2.478796030364744E-104 -5.169179616047163E-105
  -136.353710512502      -4.293771887210637E-103 -3.300409463907085E-103
  -135.563254219676       1.501030843798102E-102  1.112169266014215E-101
  -134.772797926850       1.200482806586697E-100 -1.862354931616087E-100
  -133.982341634024      -3.845410232540787E-099  1.436379107556132E-099
  -133.191885341198       6.859734676164260E-098  1.599084904717313E-098
  -132.401429048372      -7.912573021730628E-097 -7.758931939511249E-097
  -131.610972755546       4.272710230549374E-096  1.529464998895626E-095
  -130.820516462720       4.987450699197585E-095 -2.005406182878688E-094
  -130.030060169894      -1.702595573382162E-093  1.753614856778104E-093
  -129.239603877068       2.560383110050343E-092 -6.427167439219829E-093
  -128.449147584241      -2.465056960199234E-091 -9.017676820795590E-092
  -127.658691291415       1.307539806717186E-090  2.047988951576399E-090
  -126.868234998589       3.148295278831305E-090 -2.099287406256752E-089
  -126.077778705763      -1.432869144842066E-088  1.051438419907226E-088
  -125.287322412937       1.410916368937141E-087  3.313658468374416E-088
  -124.496866120111      -4.579703722158612E-087 -1.076699216269862E-086
  -123.706409827285      -5.408758034961460E-086  7.807366523431640E-086
  -122.915953534459       7.817662003051909E-085  8.300694586665505E-086
  -122.125497241633      -2.250190775257530E-084 -6.326031444708313E-084
  -121.335040948807      -4.373054290127302E-083  4.066079319628835E-083
  -120.544584655980       5.031557989713842E-082  2.374295955016983E-082
  -119.754128363154       3.913610973093156E-082 -5.432033250694282E-081
  -118.963672070328      -5.348587275089045E-080  1.652992411585547E-080
  -118.173215777502       3.822913530214727E-079  4.651403706483724E-079
  -117.382759484676       3.022058436793986E-078 -6.014261163911164E-078
  -116.592303191850      -7.750971128376795E-077 -6.864716971006176E-079
  -115.801846899024       4.325119183764105E-076  8.000692125168436E-076
  -115.011390606198       5.314929527101094E-075 -9.332165711336566E-075
  -114.220934313372      -1.253965757665717E-073  1.197881243753388E-074
  -113.430478020546       1.001106360502304E-072  1.046879029380052E-072
  -112.640021727719       1.426793192249149E-072 -1.606330984748351E-071
  -111.849565434893      -1.341159766462335E-070  1.074998742757803E-070
  -111.059109142067       1.729582778441171E-069  1.635652901435820E-070
  -110.268652849241      -1.105806074620753E-068 -1.229071068308781E-068
  -109.478196556415       4.684709272211972E-070  1.474620511052808E-067
  -108.687740263589       8.154390237788007E-067 -9.216358272926544E-067
  -107.897283970763      -9.563185493568313E-066  1.041524793546738E-066
  -107.106827677937       5.622954945691345E-065  4.289854472125931E-065
  -106.316371385111      -6.194668097655414E-065 -4.883673947632937E-064
  -105.525915092285      -2.128535238351619E-063  2.485943028906730E-063
  -104.735458799458       2.099659383862794E-062  4.055564784431228E-064
  -103.945002506632      -7.624340756062273E-062 -1.072636523375633E-061
  -103.154546213806      -2.934130725374676E-061  7.606051997312253E-061
  -102.364089920980       4.983990660025232E-060 -8.333798668791231E-061
  -101.573633628154      -1.926113802990289E-059 -2.517520620988804E-059
  -100.783177335328      -9.205339273872222E-059  1.812333807932693E-058
  -99.9927210425018       1.341821775267583E-057  7.129183737711176E-059
  -99.2022647496757      -3.101631843080228E-057 -8.675686569529578E-057
  -98.4118084568496      -4.898150279618447E-056  4.390408297846653E-056
  -97.6213521640235       4.409560368490352E-055  2.127552250460300E-055
  -96.8308958711974       1.670051465328149E-055 -3.790689630343811E-054
  -96.0404395783713      -2.823482786775338E-053  1.154044825235814E-053
  -95.2499832855452       1.910858431226190E-052  1.654976293535569E-052
  -94.4595269927191       4.230292402763218E-052 -2.100093901585437E-051
  -93.6690706998930      -1.714212755044337E-050  6.634677819928046E-051
  -92.8786144070669       1.324735379878510E-049  8.593744731185540E-050
  -92.0881581142408      -1.487151000894525E-049 -1.333662885920794E-048
  -91.2977018214147      -7.287249583194843E-048  8.430219763359999E-048
  -90.5072455285886       8.895434270793383E-047 -8.199594959079618E-048
  -89.7167892357625      -5.557714670730428E-046 -3.980204681294258E-046
  -88.9263329429364       1.371838143658433E-045  4.749621691881179E-045
  -88.1358766501103       1.152324825491552E-044 -3.146957559511887E-044
  -87.3454203572842      -1.731574014610097E-043  1.217171098102232E-043
  -86.5549640644581       1.240701818645189E-042 -2.333027827266068E-044
  -85.7645077716320      -5.664961224633580E-042 -3.664713731514189E-042
  -84.9740514788059       1.302663916942753E-041  3.148666007589552E-041
  -84.1835951859798       3.735526138379728E-041 -1.561114753391624E-040
  -83.3931388931537      -5.539123059025282E-040  4.439766770778860E-040
  -82.6026826003276       2.971199371310228E-039  7.811082103345048E-041
  -81.8122263075015      -8.489164186265818E-039 -8.339062507981829E-039
  -81.0217700146754      -3.841187188654266E-040  4.606116119381748E-038
  -80.2313137218493       1.327524160796979E-037 -1.130883773965262E-037
  -79.4408574290232      -6.395872552284913E-037 -1.328357811016656E-037
  -78.6504011361971       9.651747839857625E-037  2.249403752735241E-036
  -77.8599448433710       5.235038805299788E-036 -7.646512763751783E-036
  -77.0694885505449      -3.565487877192049E-035 -2.601577709793225E-036
  -76.2790322577188       5.845413639759449E-035  1.288338961685744E-034
  -75.4885759648927       3.558753487893114E-034 -4.541008891914638E-034
  -74.6981196720666      -2.385023996409281E-033 -4.647329035895728E-034
  -73.9076633792405       2.950034335207437E-033  1.014713350885944E-032
  -73.1172070864144       3.391130563076386E-032 -3.301500407000898E-032
  -72.3267507935883      -2.083901641177013E-031 -6.133699167369759E-032
  -71.5362945007622       2.590038606206150E-031  9.810298425660588E-031
  -70.7458382079361       3.187787212846947E-030 -3.562952244204865E-030
  -69.9553819151100      -2.237505914581602E-029 -2.341540087454909E-030
  -69.1649256222839       5.609630605983667E-029  8.826942600736651E-029
  -68.3744693294578       1.358963015323649E-028 -4.551974819274729E-028
  -67.5840130366317      -1.864054097612064E-027  9.360621951294517E-028
  -66.7935567438056       8.337960236493650E-027  2.713702485854619E-027
  -66.0031004509795      -1.688956372915186E-026 -3.065887301469519E-026
  -65.2126441581534      -3.023843883822576E-026  1.283728903858188E-025
  -64.4221878653272       3.826398166306426E-025 -2.682626020827408E-025
  -63.6317315725012      -1.544153367396428E-024 -1.882195917225449E-025
  -62.8412752796751       3.141114627902111E-024  3.726222933328678E-024
  -62.0508189868490       1.096657921362535E-024 -1.439361057018862E-023
  -61.2603626940229      -3.162428148737485E-023  2.563781389287784E-023
  -60.4699064011968       1.086096729433015E-022  1.945715158414111E-023
  -59.6794501083707      -1.353265191918639E-022 -2.571324744798173E-022
  -58.8889938155445      -3.462686566578907E-022  6.681962963883215E-022
  -58.0985375227184       1.935907985127546E-021 -1.485267033220365E-022
  -57.3080812298923      -2.771508279533696E-021 -4.224389132424711E-021
  -56.5176249370662      -6.793544235820216E-021  1.156992818220321E-020
  -55.7271686442401       3.652012037975435E-020  3.963376701257553E-021
  -54.9367123514140      -2.979816517570881E-020 -1.002099052590085E-019
  -54.1462560585879      -2.432268311904214E-019  1.938624114386391E-019
  -53.3557997657618       8.448465306264282E-019  4.765108717585381E-019
  -52.5653434729357       3.626603819970225E-019 -3.148566573683255E-018
  -51.7748871801096      -1.028746231358464E-017  3.325530636819864E-018
  -50.9844308872835       2.693523631259281E-017  2.714964999768293E-017
  -50.1939745944574       3.676597314061370E-017 -1.339787399520191E-016
  -49.4035183016313      -4.867898861938826E-016  1.588930036032895E-016
  -48.6130620088052       1.554020037957411E-015  1.072274057467227E-015
  -47.8226057159791      -8.088552346695302E-016 -6.810009759549271E-015
  -47.0321494231530      -1.480946161070636E-014  1.907838361237304E-014
  -46.2416931303269       7.959883803917433E-014 -1.600776014026192E-014
  -45.4512368375008      -2.306291216229430E-013 -1.129711138238709E-013
  -44.6607805446747       3.676077426007539E-013  6.591865266048981E-013
  -43.8703242518486       1.309973456639429E-013 -2.036691967275736E-012
  -43.0798679590225      -2.927920863137978E-012  4.107580164212225E-012
  -42.2894116661964       1.047795569102987E-011 -4.397442696603030E-012
  -41.4989553733703      -2.300682846353078E-011 -4.028220487160162E-012
  -40.7084990805442       3.138090408178863E-011  3.088242455874861E-011
  -39.9180427877181      -1.076215131212111E-011 -7.603171847986040E-011
  -39.1275864948920      -6.810359729239631E-011  1.053393522891915E-010
  -38.3371302020659       1.904926635957352E-010 -4.073161933016605E-011
  -37.5466739092398      -2.322157072580195E-010 -1.778380657579788E-010
  -36.7562176164137      -1.177150299390471E-011  4.321425520823235E-010
  -35.9657613235876       5.555178525680873E-010 -3.185844198313634E-010
  -35.1753050307615      -8.118891694094917E-010 -5.256846588695432E-010
  -34.3848487379354      -2.437011229960402E-010  1.492765672911733E-009
  -33.5943924451093       2.430348264977700E-009 -4.957537621661067E-010
  -32.8039361522832      -2.177384672745508E-009 -3.715085447399715E-009
  -32.0134798594571      -5.299061253765605E-009  5.938677637556560E-009
  -31.2230235666310       1.435519843218480E-008  6.324213796374537E-009
  -30.4325672738049       2.686173671909198E-009 -3.276823283057804E-008
  -29.6421109809788      -6.978696284976232E-008  2.068113278226398E-008
  -28.8516546881527       1.097548017207312E-007  1.277274874820617E-007
  -28.0611983953266       1.470746245138696E-007 -3.736859367158639E-007
  -27.2707421025005      -9.544643354599648E-007  1.776990932085318E-007
  -26.4802858096744       1.709824920791558E-006  1.592469219067803E-006
  -25.6898295168483       1.913104503071322E-007 -5.489239827545361E-006
  -24.8993732240222      -9.020818559692925E-006  8.475131450714047E-006
  -24.1089169311961       2.626007647849813E-005 -9.965778599432004E-007
  -23.3184606383700      -4.198042342948656E-005 -3.031898444863844E-005
  -22.5280043455439       2.934190054317580E-005  8.889537342857439E-005
  -21.7375480527178       4.394959919238506E-005 -1.476732461078685E-004
  -20.9470917598917      -1.801643891191905E-004  1.432901570364773E-004
  -20.1566354670656       3.125672329271827E-004 -1.261694120526557E-005
  -19.3661791742395      -3.139751322110781E-004 -2.301702502752340E-004
  -18.5757228814134       9.198624099411604E-005  4.392719847803557E-004
  -17.7852665885873       2.742700863516484E-004 -4.021048261283570E-004
  -16.9948102957612      -5.041801621265914E-004  4.221038518970402E-005
  -16.2043540029351       3.220966199000226E-004  4.013778318840106E-004
  -15.4138977101090       1.999819277049732E-004 -4.838290233959551E-004
  -14.6234414172829      -5.440643436945225E-004  1.358465182562395E-005
  -13.8329851244568       2.108907459413046E-004  5.509177420263724E-004
  -13.0425288316307       5.426821019460160E-004 -4.073242377161896E-004
  -12.2520725388046      -6.461530798190692E-004 -5.367980657119132E-004
  -11.4616162459785      -5.253220694447032E-004  1.000869590898486E-003
  -10.6711599531524       1.599120358104205E-003  4.505568237747824E-004
  -9.88070366032627       1.163016752721959E-004 -2.664010546860940E-003
  -9.09024736750017      -4.522454054717090E-003  1.072070722677150E-003
  -8.29979107467407       4.741455246445764E-003  7.299457780752731E-003
  -7.50933478184796       9.243813116924793E-003 -1.456156983531012E-002
  -6.71887848902186      -3.544621615052477E-002 -1.259280295949018E-003
  -5.92842219619576       4.217075642034974E-002  6.081701246507449E-002
  -5.13796590336966       3.119733451335876E-002 -0.149657245417806     
  -4.34750961054356      -0.238753070952894       0.189392284669364     
  -3.55705331771746       0.569549541192545      -4.985952298935038E-002
  -2.76659702489135      -0.909765562467132      -0.380251848264532     
  -1.97614073206525        1.07213951030726        1.09375933035040     
  -1.18568443923915      -0.895908818957112       -1.90773285654530     
 -0.395228146413051       0.359254132814076        2.51448288052897     
  0.395228146413051       0.359254132814076       -2.51448288052897     
   1.18568443923915      -0.895908818957112        1.90773285654530     
   1.97614073206525        1.07213951030726       -1.09375933035040     
   2.76659702489135      -0.909765562467132       0.380251848264532     
   3.55705331771746       0.569549541192545       4.985952298935038E-002
   4.34750961054356      -0.238753070952894      -0.189392284669364     
   5.13796590336966       3.119733451335876E-002  0.149657245417806     
   5.92842219619576       4.217075642034974E-002 -6.081701246507449E-002
   6.71887848902186      -3.544621615052477E-002  1.259280295949018E-003
   7.50933478184796       9.243813116924793E-003  1.456156983531012E-002
   8.29979107467407       4.741455246445764E-003 -7.299457780752731E-003
   9.09024736750017      -4.522454054717090E-003 -1.072070722677150E-003
   9.88070366032627       1.163016752721959E-004  2.664010546860940E-003
   10.6711599531524       1.599120358104205E-003 -4.505568237747824E-004
   11.4616162459785      -5.253220694447032E-004 -1.000869590898486E-003
   12.2520725388046      -6.461530798190692E-004  5.367980657119132E-004
   13.0425288316307       5.426821019460160E-004  4.073242377161896E-004
   13.8329851244568       2.108907459413046E-004 -5.509177420263724E-004
   14.6234414172829      -5.440643436945225E-004 -1.358465182562395E-005
   15.4138977101090       1.999819277049732E-004  4.838290233959551E-004
   16.2043540029351       3.220966199000226E-004 -4.013778318840106E-004
   16.9948102957612      -5.041801621265914E-004 -4.221038518970402E-005
   17.7852665885873       2.742700863516484E-004  4.021048261283570E-004
   18.5757228814134       9.198624099411604E-005 -4.392719847803557E-004
   19.3661791742395      -3.139751322110781E-004  2.301702502752340E-004
   20.1566354670656       3.125672329271827E-004  1.261694120526557E-005
   20.9470917598917      -1.801643891191905E-004 -1.432901570364773E-004
   21.7375480527178       4.394959919238506E-005  1.476732461078685E-004
   22.5280043455439       2.934190054317580E-005 -8.889537342857439E-005
   23.3184606383700      -4.198042342948656E-005  3.031898444863844E-005
   24.1089169311961       2.626007647849813E-005  9.965778599432004E-007
   24.8993732240222      -9.020818559692925E-006 -8.475131450714047E-006
   25.6898295168483       1.913104503071322E-007  5.489239827545361E-006
   26.4802858096744       1.709824920791558E-006 -1.592469219067803E-006
   27.2707421025005      -9.544643354599648E-007 -1.776990932085318E-007
   28.0611983953266       1.470746245138696E-007  3.736859367158639E-007
   28.8516546881527       1.097548017207312E-007 -1.277274874820617E-007
   29.6421109809788      -6.978696284976232E-008 -2.068113278226398E-008
   30.4325672738049       2.686173671909198E-009  3.276823283057804E-008
   31.2230235666310       1.435519843218480E-008 -6.324213796374537E-009
   32.0134798594571      -5.299061253765605E-009 -5.938677637556560E-009
   32.8039361522832      -2.177384672745508E-009  3.715085447399715E-009
   33.5943924451093       2.430348264977700E-009  4.957537621661067E-010
   34.3848487379354      -2.437011229960402E-010 -1.492765672911733E-009
   35.1753050307615      -8.118891694094917E-010  5.256846588695432E-010
   35.9657613235876       5.555178525680873E-010  3.185844198313634E-010
   36.7562176164137      -1.177150299390471E-011 -4.321425520823235E-010
   37.5466739092398      -2.322157072580195E-010  1.778380657579788E-010
   38.3371302020659       1.904926635957352E-010  4.073161933016605E-011
   39.1275864948920      -6.810359729239631E-011 -1.053393522891915E-010
   39.9180427877181      -1.076215131212111E-011  7.603171847986040E-011
   40.7084990805442       3.138090408178863E-011 -3.088242455874861E-011
   41.4989553733703      -2.300682846353078E-011  4.028220487160162E-012
   42.2894116661964       1.047795569102987E-011  4.397442696603030E-012
   43.0798679590225      -2.927920863137978E-012 -4.107580164212225E-012
   43.8703242518486       1.309973456639429E-013  2.036691967275736E-012
   44.6607805446747       3.676077426007539E-013 -6.591865266048981E-013
   45.4512368375008      -2.306291216229430E-013  1.129711138238709E-013
   46.2416931303269       7.959883803917433E-014  1.600776014026192E-014
   47.0321494231530      -1.480946161070636E-014 -1.907838361237304E-014
   47.8226057159791      -8.088552346695302E-016  6.810009759549271E-015
   48.6130620088052       1.554020037957411E-015 -1.072274057467227E-015
   49.4035183016313      -4.867898861938826E-016 -1.588930036032895E-016
   50.1939745944574       3.676597314061370E-017  1.339787399520191E-016
   50.9844308872835       2.693523631259281E-017 -2.714964999768293E-017
   51.7748871801096      -1.028746231358464E-017 -3.325530636819864E-018
   52.5653434729357       3.626603819970225E-019  3.148566573683255E-018
   53.3557997657618       8.448465306264282E-019 -4.765108717585381E-019
   54.1462560585879      -2.432268311904214E-019 -1.938624114386391E-019
   54.9367123514140      -2.979816517570881E-020  1.002099052590085E-019
   55.7271686442401       3.652012037975435E-020 -3.963376701257553E-021
   56.5176249370662      -6.793544235820216E-021 -1.156992818220321E-020
   57.3080812298923      -2.771508279533696E-021  4.224389132424711E-021
   58.0985375227184       1.935907985127546E-021  1.485267033220365E-022
   58.8889938155446      -3.462686566578907E-022 -6.681962963883215E-022
   59.6794501083707      -1.353265191918639E-022  2.571324744798173E-022
   60.4699064011968       1.086096729433015E-022 -1.945715158414111E-023
   61.2603626940229      -3.162428148737485E-023 -2.563781389287784E-023
   62.0508189868490       1.096657921362535E-024  1.439361057018862E-023
   62.8412752796751       3.141114627902111E-024 -3.726222933328678E-024
   63.6317315725012      -1.544153367396428E-024  1.882195917225449E-025
   64.4221878653273       3.826398166306426E-025  2.682626020827408E-025
   65.2126441581534      -3.023843883822576E-026 -1.283728903858188E-025
   66.0031004509795      -1.688956372915186E-026  3.065887301469519E-026
   66.7935567438056       8.337960236493650E-027 -2.713702485854619E-027
   67.5840130366317      -1.864054097612064E-027 -9.360621951294517E-028
   68.3744693294578       1.358963015323649E-028  4.551974819274729E-028
   69.1649256222839       5.609630605983667E-029 -8.826942600736651E-029
   69.9553819151100      -2.237505914581602E-029  2.341540087454909E-030
   70.7458382079361       3.187787212846947E-030  3.562952244204865E-030
   71.5362945007622       2.590038606206150E-031 -9.810298425660588E-031
   72.3267507935883      -2.083901641177013E-031  6.133699167369759E-032
   73.1172070864144       3.391130563076386E-032  3.301500407000898E-032
   73.9076633792405       2.950034335207437E-033 -1.014713350885944E-032
   74.6981196720666      -2.385023996409281E-033  4.647329035895728E-034
   75.4885759648927       3.558753487893114E-034  4.541008891914638E-034
   76.2790322577188       5.845413639759449E-035 -1.288338961685744E-034
   77.0694885505449      -3.565487877192049E-035  2.601577709793225E-036
   77.8599448433710       5.235038805299788E-036  7.646512763751783E-036
   78.6504011361971       9.651747839857625E-037 -2.249403752735241E-036
   79.4408574290232      -6.395872552284913E-037  1.328357811016656E-037
   80.2313137218493       1.327524160796979E-037  1.130883773965262E-037
   81.0217700146754      -3.841187188654266E-040 -4.606116119381748E-038
   81.8122263075015      -8.489164186265818E-039  8.339062507981829E-039
   82.6026826003276       2.971199371310228E-039 -7.811082103345048E-041
   83.3931388931537      -5.539123059025282E-040 -4.439766770778860E-040
   84.1835951859798       3.735526138379728E-041  1.561114753391624E-040
   84.9740514788059       1.302663916942753E-041 -3.148666007589552E-041
   85.7645077716320      -5.664961224633580E-042  3.664713731514189E-042
   86.5549640644581       1.240701818645189E-042  2.333027827266068E-044
   87.3454203572842      -1.731574014610097E-043 -1.217171098102232E-043
   88.1358766501103       1.152324825491552E-044  3.146957559511887E-044
   88.9263329429364       1.371838143658433E-045 -4.749621691881179E-045
   89.7167892357625      -5.557714670730428E-046  3.980204681294258E-046
   90.5072455285886       8.895434270793383E-047  8.199594959079618E-048
   91.2977018214147      -7.287249583194843E-048 -8.430219763359999E-048
   92.0881581142408      -1.487151000894525E-049  1.333662885920794E-048
   92.8786144070669       1.324735379878510E-049 -8.593744731185540E-050
   93.6690706998930      -1.714212755044337E-050 -6.634677819928046E-051
   94.4595269927191       4.230292402763218E-052  2.100093901585437E-051
   95.2499832855452       1.910858431226190E-052 -1.654976293535569E-052
   96.0404395783713      -2.823482786775338E-053 -1.154044825235814E-053
   96.8308958711974       1.670051465328149E-055  3.790689630343811E-054
   97.6213521640235       4.409560368490352E-055 -2.127552250460300E-055
   98.4118084568496      -4.898150279618447E-056 -4.390408297846653E-056
   99.2022647496757      -3.101631843080228E-057  8.675686569529578E-057
   99.9927210425018       1.341821775267583E-057 -7.129183737711176E-059
   100.783177335328      -9.205339273872222E-059 -1.812333807932693E-058
   101.573633628154      -1.926113802990289E-059  2.517520620988804E-059
   102.364089920980       4.983990660025232E-060  8.333798668791231E-061
   103.154546213806      -2.934130725374676E-061 -7.606051997312253E-061
   103.945002506632      -7.624340756062273E-062  1.072636523375633E-061
   104.735458799458       2.099659383862794E-062 -4.055564784431228E-064
   105.525915092285      -2.128535238351619E-063 -2.485943028906730E-063
   106.316371385111      -6.194668097655414E-065  4.883673947632937E-064
   107.106827677937       5.622954945691345E-065 -4.289854472125931E-065
   107.897283970763      -9.563185493568313E-066 -1.041524793546738E-066
   108.687740263589       8.154390237788007E-067  9.216358272926544E-067
   109.478196556415       4.684709272211972E-070 -1.474620511052808E-067
   110.268652849241      -1.105806074620753E-068  1.229071068308781E-068
   111.059109142067       1.729582778441171E-069 -1.635652901435820E-070
   111.849565434893      -1.341159766462335E-070 -1.074998742757803E-070
   112.640021727719       1.426793192249149E-072  1.606330984748351E-071
   113.430478020546       1.001106360502304E-072 -1.046879029380052E-072
   114.220934313372      -1.253965757665717E-073 -1.197881243753388E-074
   115.011390606198       5.314929527101094E-075  9.332165711336566E-075
   115.801846899024       4.325119183764105E-076 -8.000692125168436E-076
   116.592303191850      -7.750971128376795E-077  6.864716971006176E-079
   117.382759484676       3.022058436793986E-078  6.014261163911164E-078
   118.173215777502       3.822913530214727E-079 -4.651403706483724E-079
   118.963672070328      -5.348587275089045E-080 -1.652992411585547E-080
   119.754128363154       3.913610973093156E-082  5.432033250694282E-081
   120.544584655980       5.031557989713842E-082 -2.374295955016983E-082
   121.335040948807      -4.373054290127302E-083 -4.066079319628835E-083
   122.125497241633      -2.250190775257530E-084  6.326031444708313E-084
   122.915953534459       7.817662003051909E-085 -8.300694586665505E-086
   123.706409827285      -5.408758034961460E-086 -7.807366523431640E-086
   124.496866120111      -4.579703722158612E-087  1.076699216269862E-086
   125.287322412937       1.410916368937141E-087 -3.313658468374416E-088
   126.077778705763      -1.432869144842066E-088 -1.051438419907226E-088
   126.868234998589       3.148295278831305E-090  2.099287406256752E-089
   127.658691291415       1.307539806717186E-090 -2.047988951576399E-090
   128.449147584241      -2.465056960199234E-091  9.017676820795590E-092
   129.239603877068       2.560383110050343E-092  6.427167439219829E-093
   130.030060169894      -1.702595573382162E-093 -1.753614856778104E-093
   130.820516462720       4.987450699197585E-095  2.005406182878688E-094
   131.610972755546       4.272710230549374E-096 -1.529464998895626E-095
   132.401429048372      -7.912573021730628E-097  7.758931939511249E-097
   133.191885341198       6.859734676164260E-098 -1.599084904717313E-098
   133.982341634024      -3.845410232540787E-099 -1.436379107556132E-099
   134.772797926850       1.200482806586697E-100  1.862354931616087E-100
   135.563254219676       1.501030843798102E-102 -1.112169266014215E-101
   136.353710512502      -4.293771887210637E-103  3.300409463907085E-103
   137.144166805329       2.478796030364744E-104  5.169179616047163E-105
   137.934623098155      -4.796695008831132E-106 -1.064161896962268E-105
   138.725079390981      -3.031648532750308E-107  4.465836355574570E-107
   139.515535683807       2.527112201877960E-108  2.975449606583948E-109
   140.305991976633      -3.666754546548868E-110 -1.185154893164204E-109
   141.096448269459      -4.968592075307321E-111  3.920639304518478E-111
   141.886904562285       2.871040156852357E-112  1.836462225843396E-112
   142.677360855111       4.878666951608888E-114 -1.884736389069072E-113
   143.467817147937      -1.178984842506279E-114  7.274581567522214E-116
   144.258273440764       2.904160468126817E-116  7.015193308761500E-116
   145.048729733590       3.741416602141607E-117 -3.521052383660172E-117
   145.839186026416      -3.327835721947670E-118 -1.437112893678444E-118
   146.629642319242       1.504479892695989E-120  2.629367529828607E-119
   147.420098612068       1.617153376719492E-120 -1.075174807558135E-120
   148.210554904894      -1.325447241315538E-121 -5.374092706166533E-122
   149.001011197720       2.896201251719549E-123  9.936948048835329E-123
   149.791467490546       3.795241386708278E-124 -6.169259396233891E-124
   150.581923783372      -4.686333492248150E-125  1.168855167230025E-125
   151.372380076198       2.688024174284529E-126  1.399157468496684E-126
   152.162836369024      -6.974833069471885E-128 -1.628229480495430E-127
   152.953292661851      -2.438502282802711E-129  9.266652304656615E-129
   153.743748954677       3.776436692378394E-130 -2.934047749383784E-130
   154.534205247503      -2.203196396579435E-131  3.347198806307375E-134
   155.324661540329       7.328223336047345E-133  5.899462538445762E-133
   156.115117833155      -6.740496296397286E-135 -3.689406305315487E-134
   156.905574125981      -7.664989512598251E-136  1.183212306305615E-135
   157.696030418807       4.965779169525544E-137 -9.539935406732318E-138
   158.486486711633      -1.373186552542608E-138 -1.090244131129444E-138
   159.276943004459      -9.742857370710941E-142  5.956004220819924E-140
   160.067399297286       1.673421967331086E-141 -1.110616292423644E-141
   160.857855590112      -6.182160184392502E-143 -2.826853382251263E-143
   161.648311882938       2.089001686569808E-145  2.321721307490687E-144
   162.438768175764       6.808300855157077E-146 -4.481446968064892E-146
   163.229224468590      -2.544100991952915E-147 -1.422062988306854E-147
   164.019680761416      -3.261205664171060E-150  1.064317137099797E-148
   164.810137054242       3.539567879985120E-150 -1.763029944598619E-150
   165.600593347068      -1.228873481208266E-151 -8.218496642864484E-152
   166.391049639894      -1.786113636564883E-154  5.480881180485095E-153
   167.181505932720       1.664154896414113E-154 -1.068988181712371E-154
   167.971962225547      -6.354875751499926E-156 -2.272015519287298E-156
   168.762418518373       7.557477202040215E-158  1.954249162314066E-157
   169.552874811199       2.339990694771385E-159 -5.050530240897694E-159
   170.343331104025      -1.039601888749583E-160  4.222431549340967E-161
   171.133787396851       1.145388721524679E-162  3.803287040542631E-163
   171.924243689677      -4.100953471110602E-191 -6.278436581276805E-191
