  -516.561975005580       6.660455507475568E-192 -7.214572944032205E-191
  -515.769094000199      -3.473329776865593E-164  3.314973229341623E-164
  -514.976212994818       5.401592442695179E-163 -2.410984666481218E-164
  -514.183331989437      -2.537149653948417E-162 -2.068140567701182E-162
  -513.390450984057       2.057793499786484E-162  1.486738956305537E-161
  -512.597569978676       3.488011037899633E-161 -4.670098171671751E-161
  -511.804688973295      -2.011709117531897E-160  2.285978120956273E-161
  -511.011807967914       4.779732877892003E-160  4.414756506006817E-160
  -510.218926962534       1.585968415492656E-160 -1.976591401270729E-159
  -509.426045957153      -5.019659268854735E-159  2.995448638349510E-159
  -508.633164951772       1.517694972607299E-158  7.543940877378966E-159
  -507.840283946391      -3.267438407140527E-159 -4.891651330217675E-158
  -507.047402941010      -1.215959280171617E-157  7.560769160471371E-158
  -506.254521935630       3.620184353716791E-157  2.252484722325820E-157
  -505.461640930249       1.591602336125024E-157 -1.294395566375158E-156
  -504.668759924868      -3.938001617219622E-156  1.205352245978840E-156
  -503.875878919487       8.784118118593301E-156  1.020450411872655E-155
  -503.082997914107       1.954250231122454E-155 -4.120080078053376E-155
  -502.290116908726      -1.597230570476443E-154 -2.179932854369006E-156
  -501.497235903345       2.433118658387717E-154  5.230068510441271E-154
  -500.704354897964       1.309953014296713E-153 -1.688259934834536E-153
  -499.911473892583      -7.977224637343409E-153 -1.229307841036191E-153
  -499.118592887203       1.171147064151292E-152  2.856428085273299E-152
  -498.325711881822       6.730143522113426E-152 -9.777130037788924E-152
  -497.532830876441      -4.553201456941603E-151  5.873807085988840E-153
  -496.739949871060       1.066773353548151E-150  1.362950927497953E-150
  -495.947068865680       1.432570625678969E-150 -6.315847684641396E-150
  -495.154187860299      -2.094729879541218E-149  1.114115233750294E-149
  -494.361306854918       7.968205320025383E-149  2.882800482879759E-149
  -493.568425849537      -1.158478598051303E-148 -2.703975834676874E-148
  -492.775544844156      -3.889957265162664E-148  9.116478641332590E-148
  -491.982663838776       3.028916217411037E-147 -1.153660338765495E-147
  -491.189782833395      -9.314222326260100E-147 -4.397837890258033E-147
  -490.396901828014       9.965269338049643E-147  3.029834515782185E-146
  -489.604020822633       4.677492116481133E-146 -8.451034108124359E-146
  -488.811139817252      -2.800026798320007E-145  6.473893268065933E-146
  -488.018258811872       6.833654901786852E-145  4.959997998366783E-145
  -487.225377806491      -1.723435500936569E-145 -2.457194130234894E-144
  -486.432496801110      -5.245614945544709E-144  4.891574938424534E-144
  -485.639615795729       2.069780216902543E-143  3.244819007037575E-144
  -484.846734790349      -2.937206383637356E-143 -5.421022472357900E-143
  -484.053853784968      -7.665412190494006E-143  1.666571612335758E-142
  -483.260972779587       5.411595786399591E-142 -1.140844512442492E-142
  -482.468091774206      -1.267851413607215E-141 -1.119639825141541E-141
  -481.675210768825      -4.080185016870286E-142  5.230689733325212E-141
  -480.882329763445       1.379674275089146E-140 -9.012017595384861E-141
  -480.089448758064      -4.961023415527017E-140 -1.645672729931935E-140
  -479.296567752683       6.041518291923719E-140  1.554368195449694E-139
  -478.503686747302       2.493977386313052E-139 -4.707039628383906E-139
  -477.710805741921      -1.642204937468603E-138  4.175650521541530E-139
  -476.917924736541       4.516289889143851E-138  2.843864666934246E-138
  -476.125043731160      -3.617891182857415E-138 -1.615041410413202E-137
  -475.332162725779      -2.618384553202754E-137  4.289873173580209E-137
  -474.539281720398       1.432960346284108E-136 -3.978642511237420E-137
  -473.746400715018      -3.808724271846240E-136 -1.932151272195231E-136
  -472.953519709637       4.258318694703311E-136  1.107642000968452E-135
  -472.160638704256       1.144530802321885E-135 -2.971773235896827E-135
  -471.367757698875      -7.387441419579057E-135  3.672809898888670E-135
  -470.574876693494       1.976446721167728E-134  5.994375953321685E-135
  -469.781995688114      -2.399743914438042E-134 -4.396496276157346E-134
  -468.989114682733      -3.538356019260802E-134  1.127146493719906E-133
  -468.196233677352       2.476231370141027E-133 -1.136150930592106E-133
  -467.403352671971      -5.585772715690748E-133 -2.652381855968061E-133
  -466.610471666591       2.954433085769565E-133  1.359956444383428E-132
  -465.817590661210       2.114108072701328E-132 -2.310191229473350E-132
  -465.024709655829      -7.007383995572481E-132 -1.177243773537585E-132
  -464.231828650448       5.919121846748480E-132  1.529082723996095E-131
  -463.438947645067       2.500041951664834E-131 -2.965301216672398E-131
  -462.646066639687      -9.225214680531079E-131 -2.145387764595959E-131
  -461.853185634306       5.282002152702624E-131  2.342591615315544E-130
  -461.060304628925       5.019071335815252E-130 -3.885534848221950E-130
  -460.267423623544      -1.555532777433391E-129 -8.078717076437788E-130
  -459.474542618163      -2.044726209674753E-130  5.053614941875640E-129
  -458.681661612783       1.393958940675348E-128 -6.110782257758367E-129
  -457.888780607402      -3.699041259043800E-128 -2.992474681472517E-128
  -457.095899602021      -2.614530275850062E-128  1.513818862399707E-127
  -456.303018596640       4.729984719606904E-127 -1.869172343283328E-127
  -455.510137591260      -1.408842433716985E-126 -9.723497559111460E-127
  -454.717256585879       1.865211985084722E-127  5.799971594285051E-126
  -453.924375580498       1.481264510897409E-125 -1.286570880483592E-125
  -453.131494575117      -6.498675774091321E-125 -8.300030192143485E-126
  -452.338613569736       1.284888145968932E-124  1.711868742285095E-124
  -451.545732564356       8.048544337616902E-125 -6.735950053703611E-124
  -450.752851558975      -1.557768329425717E-123  1.364139596976774E-123
  -449.959970553594       6.052003791499811E-123 -5.017668494845915E-125
  -449.167089548213      -1.301066732249191E-122 -1.074898197652091E-122
  -448.374208542832       8.175729942910406E-123  4.407397510152169E-122
  -447.581327537452       5.659315680904924E-122 -9.837776330496415E-122
  -446.788446532071      -2.604204285450064E-121  8.763964822502022E-122
  -445.995565526690       5.819874688428597E-121  2.651198693731782E-121
  -445.202684521309      -5.017613014745117E-121 -1.351543353655251E-120
  -444.409803515929      -1.450298294526705E-120  2.826160200159370E-120
  -443.616922510548       6.743172770569963E-120 -1.519420107550945E-120
  -442.824041505167      -1.148645855472473E-119 -9.675371992765617E-120
  -442.031160499786      -3.158296910969209E-120  3.279031435894701E-119
  -441.238279494405       6.581985178775593E-119 -3.317572788251672E-119
  -440.445398489025      -1.424139170956057E-118 -9.243892504219012E-119
  -439.652517483644      -2.992235572524135E-119  4.045107548503480E-118
  -438.859636478263       9.258513993139724E-118 -4.042778012997146E-118
  -438.066755472882      -2.047110750309307E-117 -1.652065246550826E-117
  -437.273874467502      -1.374399786433924E-117  7.028482428182592E-117
  -436.480993462121       1.936676913761575E-116 -6.195208134778587E-117
  -435.688112456740      -4.458045412991875E-116 -4.001807009153090E-116
  -434.895231451359      -3.006829604037575E-116  1.793220373116851E-115
  -434.102350445978       5.092439377045142E-115 -2.409026927441486E-115
  -433.309469440598      -1.568976407872539E-114 -8.042375570193839E-115
  -432.516588435217       1.261775064208484E-114  5.363966489861775E-114
  -431.723707429836       9.402204745464898E-114 -1.416086090187194E-113
  -430.930826424455      -5.000194553011757E-113  1.082906105244585E-113
  -430.137945419075       1.291506746811508E-112  7.362611787896771E-113
  -429.345064413694      -1.428983659785602E-112 -3.877500504024194E-112
  -428.552183408313      -3.482195843134378E-112  1.033938912349208E-111
  -427.759302402932       2.280588439208983E-111 -1.487214213242341E-111
  -426.966421397551      -6.382060178825875E-111 -5.959059747038213E-112
  -426.173540392171       1.012995743980654E-110  1.002233143780093E-110
  -425.380659386790      -2.252485734930222E-111 -2.995251248304679E-110
  -424.587778381409      -3.805691219504347E-110  4.696689019869569E-110
  -423.794897376028       1.168644704465523E-109 -9.783732348155755E-111
  -423.002016370648      -1.576772665784389E-109 -1.561412187100406E-109
  -422.209135365267      -5.632166963893498E-110  4.111978320557697E-109
  -421.416254359886       7.026314569519203E-109 -3.345591832729556E-109
  -420.623373354505      -1.217955561010228E-108 -8.475530692470167E-109
  -419.830492349124      -4.257557409233840E-109  2.884876457382591E-108
  -419.037611343744       5.768427422178545E-108 -1.570998069568593E-108
  -418.244730338363      -7.710676154878705E-108 -1.035952666618820E-107
  -417.451849332982      -1.629806252840985E-107  2.471683277113514E-107
  -416.658968327601       7.015157187333106E-107  1.769539244716120E-107
  -415.866087322220      -1.714593678290431E-107 -1.878779815191418E-106
  -415.073206316840      -4.727041283570213E-106  2.257599788852321E-106
  -414.280325311459       1.136951821568886E-105  1.040021372353350E-105
  -413.487444306078       1.475766143586166E-105 -4.528993935711668E-105
  -412.694563300697      -1.511614180390495E-104  2.473067347072869E-105
  -411.901682295317       3.252193035914574E-104  3.878833912716991E-104
  -411.108801289936       4.602843280095059E-104 -1.632816677434538E-103
  -410.315920284555      -5.265468124697395E-103  2.148839154619360E-103
  -409.523039279174       1.686484608073917E-102  8.333676553042182E-103
  -408.730158273793      -1.922881852080862E-102 -5.748573696405896E-102
  -407.937277268413      -7.608050087275246E-102  1.720651780796753E-101
  -407.144396263032       5.003846345792740E-101 -2.451642146711960E-101
  -406.351515257651      -1.528378856581199E-100 -3.331131094623561E-101
  -405.558634252270       2.677611110072877E-100  3.165143650336085E-100
  -404.765753246890      -5.300661825941848E-101 -1.035041574386239E-099
  -403.972872241509      -1.401949376473329E-099  2.007974222922485E-099
  -403.179991236128       5.284531779597743E-099 -1.514677384950309E-099
  -402.387110230747      -1.071383539404259E-098 -4.973139836523770E-099
  -401.594229225366       9.166453909638426E-099  2.275052283208136E-098
  -400.801348219986       2.006405487782693E-098 -4.554929772847810E-098
  -400.008467214605      -9.508760513997688E-098  3.054865743607033E-098
  -399.215586209224       1.676707821186193E-097  1.100102407651765E-097
  -398.422705203843      -2.264104009428456E-098 -4.068082312864198E-097
  -397.629824198462      -6.708676331087972E-097  5.151278163898671E-097
  -396.836943193082       1.701246528175948E-096  6.126428189235819E-097
  -396.044062187701      -8.161341458123625E-097 -3.918231892224304E-096
  -395.251181182320      -6.745339913763035E-096  6.253227187550371E-096
  -394.458300176939       2.109878463216744E-095  6.048322357747080E-096
  -393.665419171558      -1.482870597763486E-095 -5.217554791305857E-095
  -392.872538166178      -9.074406885190426E-095  1.041501207424004E-094
  -392.079657160797       3.577700239885322E-094  3.989619765119225E-095
  -391.286776155416      -4.799232276785802E-094 -8.219901051342563E-094
  -390.493895150035      -9.050468531967935E-094  2.361852079290618E-093
  -389.701014144655       6.287608267403588E-093 -2.280223299963798E-093
  -388.908133139274      -1.551239904015344E-092 -7.948464210193700E-093
  -388.115252133893       1.341772895477920E-092  4.229507789900279E-092
  -387.322371128512       4.840308608010828E-092 -9.823593000225512E-092
  -386.529490123131      -2.433499049094962E-091  9.302725019452900E-092
  -385.736609117751       5.539013470961960E-091  2.178271176841473E-091
  -384.943728112370      -5.725544135423951E-091 -1.171666021649284E-090
  -384.150847106989      -8.071744257012851E-091  2.621721319852380E-090
  -383.357966101608       4.884229097236720E-090 -2.654940935144773E-090
  -382.565085096228      -1.040968144453351E-089 -3.284871068230537E-090
  -381.772204090847       8.637448427365433E-090  1.905959160548272E-089
  -380.979323085466       1.736451474872550E-089 -3.550164860566477E-089
  -380.186442080085      -7.290750962553762E-089  1.419998631177193E-089
  -379.393561074704       1.003656518378135E-088  9.813155905989562E-089
  -378.600680069324       5.619165558626883E-089 -2.634885922369568E-088
  -377.807799063943      -5.032964509157839E-088  1.660955066324927E-088
  -377.014918058562       7.870353184309246E-088  7.348457142488795E-088
  -376.222037053181       6.044987584122530E-088 -2.190029200991872E-087
  -375.429156047801      -4.891719587001728E-087  1.008400167541736E-087
  -374.636275042420       7.172724310503950E-087  8.922657447332758E-087
  -373.843394037039       1.084868068767812E-086 -2.506161269801739E-086
  -373.050513031658      -6.718714979333161E-086  6.561011891752497E-087
  -372.257632026277       1.014905283841136E-085  1.386568074911207E-085
  -371.464751020897       1.614451337445459E-085 -4.165852138927782E-085
  -370.671870015516      -1.142624953554874E-084  2.773290534463471E-085
  -369.878989010135       2.402725252031900E-084  1.961788391729313E-084
  -369.086108004754      -2.084932788507175E-086 -8.124125966298256E-084
  -368.293226999373      -1.565512296994593E-083  1.389884953536610E-083
  -367.500345993993       5.244271609601168E-083  4.743258563459286E-084
  -366.707464988612      -8.163691782682553E-083 -9.918684322465054E-083
  -365.914583983231      -2.630252689226531E-083  3.014614709017880E-082
  -365.121702977850       5.181895376673091E-082 -4.504622129870642E-082
  -364.328821972470      -1.498091361658804E-081 -8.111959544186462E-083
  -363.535940967089       2.125209315549328E-081  2.342719071421630E-081
  -362.743059961708       3.965514039536477E-082 -6.447771291218406E-081
  -361.950178956327      -9.944844429050655E-081  8.144724173482901E-081
  -361.157297950946       2.475311923719540E-080  4.173858396936889E-081
  -360.364416945566      -2.398487372587996E-080 -4.216396482801000E-080
  -359.571535940185      -3.675857863701606E-080  8.605837408880438E-080
  -358.778654934804       1.777093466778773E-079 -3.845622296852324E-080
  -357.985773929423      -2.573999888812155E-079 -2.499089496278663E-079
  -357.192892924042      -1.494754479320253E-079  7.084616342769821E-079
  -356.400011918662       1.418327064863890E-078 -4.976869403931372E-079
  -355.607130913281      -2.470268784782940E-078 -2.067613808749598E-078
  -354.814249907900      -1.140368724195329E-078  7.045712387919601E-078
  -354.021368902519       1.513755798205579E-077 -6.135640513712489E-078
  -353.228487897139      -3.126647207538819E-077 -2.243703384241149E-077
  -352.435606891758      -3.151905349640595E-078  9.280257743035365E-077
  -351.642725886377       1.898541615559609E-076 -1.259448555766210E-076
  -350.849844880996      -5.332544771222337E-076 -1.827970013833052E-076
  -350.056963875615       4.930023737542264E-076  1.303734145326016E-075
  -349.264082870235       1.579074278647035E-075 -3.025005750919925E-075
  -348.471201864854      -7.878043207504485E-075  2.271312186542869E-075
  -347.678320859473       1.683857098394380E-074  9.188438539505833E-075
  -346.885439854092      -1.338039792766694E-074 -4.130617907547795E-074
  -346.092558848712      -3.949031592727429E-074  8.600141722327934E-074
  -345.299677843331       1.822779931991979E-073 -7.751453657417586E-074
  -344.506796837950      -3.751366472896188E-073 -1.326410504781798E-073
  -343.713915832569       3.522176461627328E-073  6.828384783134783E-073
  -342.921034827188       4.226178198804527E-073 -1.367457697362447E-072
  -342.128153821808      -2.309987339829527E-072  1.162976476207345E-072
  -341.335272816427       4.250988528496652E-072  1.663222933162493E-072
  -340.542391811046      -2.492331994757774E-072 -7.533508667605120E-072
  -339.749510805665      -7.742079645160920E-072  1.131217567882687E-071
  -338.956629800285       2.375224440108360E-071 -2.227710587461791E-073
  -338.163748794904      -2.280938615262602E-071 -3.486952915739876E-071
  -337.370867789523      -3.295127963489271E-071  6.695458000886844E-071
  -336.577986784142       1.373124713381922E-070 -6.444771500384617E-072
  -335.785105778761      -1.321140963776318E-070 -2.262376075736558E-070
  -334.992224773381      -2.819669626375175E-070  4.353568339646977E-070
  -334.199343768000       1.062153999399020E-069  1.196646890892177E-070
  -333.406462762619      -7.960689292805538E-070 -2.149483054279948E-069
  -332.613581757238      -3.425809807459547E-069  3.782537752063305E-069
  -331.820700751857       1.142435908075755E-068  2.728592632257879E-069
  -331.027819746477      -8.081163995205866E-069 -2.657826706613526E-068
  -330.234938741096      -4.383017993174502E-068  5.070749807810584E-068
  -329.442057735715       1.625834964780072E-067  1.852841481275212E-068
  -328.649176730334      -2.003954450329067E-067 -3.471532543000960E-067
  -327.856295724954      -3.563214453987483E-067  9.097033231201334E-067
  -327.063414719573       2.220422768211275E-066 -7.729497492579732E-067
  -326.270533714192      -4.876296573042137E-066 -2.647016235976411E-066
  -325.477652708811       3.355106981451202E-066  1.232172901393017E-065
  -324.684771703430       1.427401768640078E-065 -2.472920645672288E-065
  -323.891890698050      -5.964474925616488E-065  1.646265758488687E-065
  -323.099009692669       1.136950041191084E-064  6.276352134920733E-065
  -322.306128687288      -7.560349614874918E-065 -2.532146206567024E-064
  -321.513247681907      -2.481732383271600E-064  4.598842998257732E-064
  -320.720366676527       9.695825658364929E-064 -2.754803351759032E-064
  -319.927485671146      -1.633491053021173E-063 -9.805462754175475E-064
  -319.134604665765       6.750306016705773E-064  3.483019399282635E-063
  -318.341723660384       4.066124880324888E-063 -5.130469569476338E-063
  -317.548842655003      -1.203675124820930E-062  1.919748250935541E-064
  -316.755961649623       1.395216167200056E-062  1.724761927323563E-062
  -315.963080644242       1.002472640055489E-062 -3.993211027672445E-062
  -315.170199638861      -7.168281941167596E-062  2.884392513462135E-062
  -314.377318633480       1.237118225281058E-061  7.958957244788142E-062
  -313.584437628099      -1.070068805941685E-062 -2.844373187946190E-061
  -312.791556622719      -4.478051087712943E-061  3.365767610473058E-061
  -311.998675617338       1.065000871136334E-060  3.492326693892840E-061
  -311.205794611957      -6.713306652109830E-061 -2.174656538689964E-060
  -310.412913606576      -2.810241745620077E-060  3.740113712451985E-060
  -309.620032601196       9.701069570572872E-060  3.642972855681631E-062
  -308.827151595815      -1.227323784365343E-059 -1.606247457210949E-059
  -308.034270590434      -1.025059817394171E-059  4.088457319196503E-059
  -307.241389585053       7.911454199118642E-059 -3.756386915081722E-059
  -306.448508579672      -1.646753959835790E-058 -7.423237934027622E-059
  -305.655627574292       1.066269404509483E-058  3.528181643171488E-058
  -304.862746568911       3.879368721849797E-058 -6.325991735704746E-058
  -304.069865563530      -1.446658773972090E-057  2.693694923231930E-058
  -303.276984558149       2.287597098753049E-057  1.735405524189840E-057
  -302.484103552769      -4.888090421754749E-058 -5.491449894109707E-057
  -301.691222547388      -7.086016289004464E-057  7.645756891080330E-057
  -300.898341542007       1.943691108651031E-056  3.658174455555029E-058
  -300.105460536626      -2.312455937695131E-056 -2.736950612000490E-056
  -299.312579531245      -1.034597515022566E-056  6.460608753461713E-056
  -298.519698525865       1.017449202506881E-055 -6.111384044308835E-056
  -297.726817520484      -2.020850557351503E-055 -7.176081299490211E-056
  -296.933936515103       1.278845117035926E-055  3.651622751719162E-055
  -296.141055509722       3.743381115353829E-055 -5.898532131699668E-055
  -295.348174504342      -1.259070636289340E-054  1.196134822274910E-055
  -294.555293498961       1.564325657109836E-054  1.684455555143065E-054
  -293.762412493580       7.235478607978812E-055 -4.135854801056127E-054
  -292.969531488199      -6.860757793449339E-054  3.514630885343379E-054
  -292.176650482818       1.279954369387930E-053  6.204240539193558E-054
  -291.383769477438      -5.130286298440609E-054 -2.585711461887603E-053
  -290.590888472057      -3.250448372613284E-053  3.668942754336471E-053
  -289.798007466676       9.108639188604795E-053  6.491982108221003E-054
  -289.005126461295      -9.429523728399596E-053 -1.416487105842717E-052
  -288.212245455914      -9.961055199517295E-053  3.005210840101205E-052
  -287.419364450534       5.518715788559647E-052 -2.002129094521138E-052
  -286.626483445153      -9.229283544727657E-052 -5.667951662406121E-052
  -285.833602439772       2.455818198535495E-052  1.969867738203820E-051
  -285.040721434391       2.515747897072893E-051 -2.589973955374583E-051
  -284.247840429011      -6.483245928731960E-051 -6.224985194019150E-052
  -283.454959423630       6.351205815006243E-051  9.766677931606110E-051
  -282.662078418249       6.637202342972191E-051 -1.957976665359550E-050
  -281.869197412868      -3.442503808782689E-050  1.193407158537197E-050
  -281.076316407487       5.324297296722669E-050  3.527081209292891E-050
  -280.283435402107      -6.375250705999986E-051 -1.113813850970102E-049
  -279.490554396726      -1.502554433478747E-049  1.237392668890315E-049
  -278.697673391345       3.285086177087456E-049  8.768143580901441E-050
  -277.904792385964      -2.043186274438244E-049 -5.599305140892195E-049
  -277.111911380583      -6.103499707855220E-049  8.556102891540826E-049
  -276.319030375203       1.867211914308704E-048  4.932902053956412E-050
  -275.526149369822      -1.781783456920244E-048 -2.838769755698694E-048
  -274.733268364441      -2.521261988065797E-048  5.532781959146678E-048
  -273.940387359060       1.103104401061109E-047 -1.703503959201403E-048
  -273.147506353680      -1.390538877508426E-047 -1.539600760691725E-047
  -272.354625348299      -9.726361493334233E-048  3.781279327791884E-047
  -271.561744342918       7.015707067191173E-047 -2.468994557593152E-047
  -270.768863337537      -1.154406304152677E-046 -8.487892773731164E-047
  -269.975982332156      -6.933476862531156E-048  2.787381476635697E-046
  -269.183101326776       4.523487402133161E-046 -3.076701894796520E-046
  -268.390220321395      -1.019351344201742E-045 -3.563310223662119E-046
  -267.597339316014       6.679774240584957E-046  2.031553788156356E-045
  -266.804458310633       2.326004618135044E-045 -3.540529018918919E-045
  -266.011577305253      -8.315056952651496E-045  9.110209393216931E-046
  -265.218696299872       1.197140981890254E-044  1.121696433670766E-044
  -264.425815294491       8.443129005475378E-046 -3.182951791592951E-044
  -263.632934289110      -4.598709094391898E-044  3.999065516165472E-044
  -262.840053283729       1.140991899919294E-043  1.135466494176343E-044
  -262.047172278349      -1.308612512668423E-043 -1.661481824925529E-043
  -261.254291272968      -4.964382419243280E-044  3.783971090678771E-043
  -260.461410267587       5.374376655848585E-043 -4.048190140589889E-043
  -259.668529262206      -1.145298939740019E-042 -1.738985954850140E-043
  -258.875648256826       1.128922179013591E-042  1.588050293352274E-042
  -258.082767251445       6.188104240589008E-043 -3.145290545949648E-042
  -257.289886246064      -4.406787792251484E-042  2.702581393871372E-042
  -256.497005240683       7.843454189142921E-042  2.375128864490256E-042
  -255.704124235302      -5.130270674554549E-042 -1.174573692192959E-041
  -254.911243229922      -9.105430708865678E-042  1.764964234503147E-041
  -254.118362224541       3.012523654186296E-041 -5.536436491976336E-042
  -253.325481219160      -3.437486280890431E-041 -3.242952961164185E-041
  -252.532600213779      -1.084170722533191E-041  7.251576913748954E-041
  -251.739719208398       1.042323462176574E-040 -4.857113539444555E-041
  -250.946838203018      -1.541387588219681E-040 -9.902695180895915E-041
  -250.153957197637      -7.296090886556246E-042  2.977450482655394E-040
  -249.361076192256       4.328617200537604E-040 -2.419118074301758E-040
  -248.568195186875      -7.298138693435672E-040 -4.314607940829006E-040
  -247.775314181495      -1.093778312017623E-041  1.490684264334946E-039
  -246.982433176114       2.332579369015973E-039 -1.351493591544639E-039
  -246.189552170733      -4.392173568225442E-039 -2.403501834397953E-039
  -245.396671165352       5.993848352965685E-040  9.503020918587732E-039
  -244.603790159971       1.468612947241285E-038 -1.118775980148670E-038
  -243.810909154591      -3.463697823884378E-038 -1.082556525123208E-038
  -243.018028149210       2.436153315304249E-038  6.757642670284059E-038
  -242.225147143829       7.334615922370043E-038 -1.217626507006505E-037
  -241.432266138448      -2.748320308050983E-037  4.834727599260804E-038
  -240.639385133067       4.298624301873646E-037  3.257745198743814E-037
  -239.846504127687      -1.300789849240954E-037 -1.010825250384815E-036
  -239.053623122306      -1.121954165302903E-036  1.497272345974373E-036
  -238.260742116925       3.270594779324322E-036 -5.730434437424720E-037
  -237.467861111544      -4.774265107586933E-036 -3.070835362125486E-036
  -236.674980106164       2.355273304413832E-036  9.030287716248343E-036
  -235.882099100783       7.030420826400422E-036 -1.297351661581837E-035
  -235.089218095402      -2.144044985069476E-035  6.779154936149424E-036
  -234.296337090021       2.932144757770208E-035  1.548703883710028E-035
  -233.503456084640      -1.230068274906660E-035 -4.598075598311306E-035
  -232.710575079260      -3.777720584465157E-035  5.533322572225252E-035
  -231.917694073879       9.306458421092113E-035 -6.563635990782658E-036
  -231.124813068498      -8.329875757003570E-035 -9.949370002155997E-035
  -230.331932063117      -5.200325493806559E-035  1.744951726892984E-034
  -229.539051057737       2.519341857256213E-034 -6.557891478096246E-035
  -228.746170052356      -2.648270500181576E-034 -2.763727705366516E-034
  -227.953289046975      -1.863538665692696E-034  5.528893300919005E-034
  -227.160408041594       9.190326316954852E-034 -1.273321131911921E-034
  -226.367527036213      -8.624488746323786E-034 -1.282763958849332E-033
  -225.574646030833      -1.347423541883755E-033  2.342866549334161E-033
  -224.781765025452       4.948942816348237E-033  2.511271075274234E-034
  -223.988884020071      -4.095368121232022E-033 -8.564574064995442E-033
  -223.196003014690      -1.054316014706967E-032  1.567204103764121E-032
  -222.403122009309       3.869811561538327E-032  5.803394243590951E-034
  -221.610241003929      -4.654122662656624E-032 -6.608285220241358E-032
  -220.817359998548      -4.582922477334657E-032  1.637414432322586E-031
  -220.024478993167       3.174289310058488E-031 -1.607053194546034E-031
  -219.231597987786      -6.974236768502673E-031 -2.193103884014564E-031
  -218.438716982406       7.547875364172041E-031  1.246469447563555E-030
  -217.645835977025       3.679912472264045E-031 -2.761486459256129E-030
  -216.852954971644      -3.538259310545331E-030  3.618515281704125E-030
  -216.060073966263       8.535640149571374E-030 -1.542073741886048E-030
  -215.267192960882      -1.270280981133943E-029 -5.797644509231156E-030
  -214.474311955502       1.071413328146698E-029  1.815851634544189E-029
  -213.681430950121       2.774281055016275E-030 -2.978206527923118E-029
  -212.888549944740      -2.725603454568940E-029  2.935962689593531E-029
  -212.095668939359       5.063982893694173E-029 -6.416273020259224E-030
  -211.302787933979      -5.082696995799278E-029 -3.638569762030769E-029
  -210.509906928598       1.069910791606380E-029  7.369470525396113E-029
  -209.717025923217       5.790203992887891E-029 -6.557298384649261E-029
  -208.924144917836      -1.024185015732389E-028 -8.552372008712375E-030
  -208.131263912455       5.825566731221760E-029  1.077233226768454E-028
  -207.338382907075       7.858881477143175E-029 -1.277278049442697E-028
  -206.545501901694      -1.903795129121650E-028 -1.438530888859151E-029
  -205.752620896313       9.084186024671163E-029  2.383333703416247E-028
  -204.959739890932       2.559529342239424E-028 -2.530603886574246E-028
  -204.166858885551      -4.988505111612506E-028 -2.025972132799200E-028
  -203.373977880171       2.002518836525033E-029  8.537219960688000E-028
  -202.581096874790       1.288783500705286E-027 -6.232575275734447E-028
  -201.788215869409      -1.986957191079577E-027 -1.551300075443776E-027
  -200.995334864028      -7.546393408036356E-028  4.558335411673466E-027
  -200.202453858648       8.078711913688992E-027 -3.269414646392825E-027
  -199.409572853267      -1.394561996684571E-026 -9.183929029734552E-027
  -198.616691847886       2.529214804228771E-027  3.194500902586181E-026
  -197.823810842505       4.245727370997197E-026 -4.342522038289190E-026
  -197.030929837124      -1.121471285943694E-025 -5.332124018475636E-028
  -196.238048831744       1.442230788349107E-025  1.376692664954622E-025
  -195.445167826363      -2.865595969590384E-026 -3.367281225972065E-025
  -194.652286820982      -3.140563561424503E-025  4.421019547202915E-025
  -193.859405815601       7.935956189027690E-025 -2.094043959200152E-025
  -193.066524810221      -1.057605244128958E-024 -5.032271370907142E-025
  -192.273643804840       6.208533911924469E-025  1.453803114569070E-024
  -191.480762799459       7.027932334553282E-025 -1.905747996116124E-024
  -190.687881794078      -2.294351814691158E-024  1.013010864593934E-024
  -189.895000788697       2.725519080264591E-024  1.280207802177395E-024
  -189.102119783317      -7.714082567194081E-025 -3.478628586318800E-024
  -188.309238777936      -2.891189338088723E-024  3.067997698184477E-024
  -187.516357772555       4.940108985729378E-024  1.093867662012389E-024
  -186.723476767174      -1.640873606281021E-024 -6.026771709043004E-024
  -185.930595761794      -6.122377448006729E-024  5.193521702532130E-024
  -185.137714756413       9.701005698388131E-024  4.866256429560972E-024
  -184.344833751032       1.320958079679382E-024 -1.548693681765862E-023
  -183.551952745651      -2.271394523235615E-023  6.691492132436726E-024
  -182.759071740270       2.368328306455824E-023  3.022514350590598E-023
  -181.966190734890       3.208243882706633E-023 -5.778533342830004E-023
  -181.173309729509      -1.196927081055000E-022 -8.716878599398757E-024
  -180.380428724128       9.037765881389645E-023  2.090569651281333E-022
  -179.587547718747       2.616128768345917E-022 -3.618198784058430E-022
  -178.794666713366      -8.915631606091506E-022 -2.405707502898364E-023
  -178.001785707986       1.064408481467807E-021  1.437500548680363E-021
  -177.208904702605       7.201019551884858E-022 -3.473664045715240E-021
  -176.416023697224      -5.716898318029836E-021  3.787560298222866E-021
  -175.623142691843       1.262257472118219E-020  1.818882656757562E-021
  -174.830261686463      -1.525149437192520E-020 -1.663309906041851E-020
  -174.037380681082       3.256664002691554E-021  3.755137428674668E-020
  -173.244499675701       3.107292212713677E-020 -5.031611071636104E-020
  -172.451618670320      -8.087487788938883E-020  3.219572493943528E-020
  -171.658737664939       1.160154977441766E-019  3.253515405243663E-020
  -170.865856659559      -9.140315810040561E-020 -1.285662053899536E-019
  -170.072975654178      -1.967486533269015E-020  1.960699567262372E-019
  -169.280094648797       1.809145663826364E-019 -1.539285406260134E-019
  -168.487213643416      -2.780958287279203E-019 -3.201025850245065E-020
  -167.694332638036       1.792901677762153E-019  2.735341487747347E-019
  -166.901451632655       1.322356882218470E-019 -3.607357277817361E-019
  -166.108570627274      -4.471309689343466E-019  1.077760419424841E-019
  -165.315689621893       3.994584663830832E-019  4.034750820404695E-019
  -164.522808616512       2.020948361214421E-019 -7.012265610100202E-019
  -163.729927611132      -9.624202924748707E-019  2.022308633622764E-019
  -162.937046605751       8.835077224922637E-019  1.079217327058180E-018
  -162.144165600370       8.127242168968318E-019 -1.917414235837663E-018
  -161.351284594989      -3.247215843653424E-018  3.304612425420190E-019
  -160.558403589608       3.163522669764949E-018  4.297554730993420E-018
  -159.765522584228       3.191995812033805E-018 -8.434526003978374E-018
  -158.972641578847      -1.504265549695602E-017  4.033086474747962E-018
  -158.179760573466       2.190194044682886E-017  1.599858310868787E-017
  -157.386879568085      -4.823675209657727E-018 -4.672006654896743E-017
  -156.593998562705      -5.015583940280889E-017  6.198240492344032E-017
  -155.801117557324       1.293379989100914E-016 -2.029644378824708E-017
  -155.008236551943      -1.763058072481241E-016 -1.055467267240998E-016
  -154.215355546562       1.088924795095291E-016  2.853098578848395E-016
  -153.422474541181       1.210142674679816E-016 -4.094656213240692E-016
  -152.629593535801      -4.519641206324133E-016  3.305154009289474E-016
  -151.836712530420       6.886932301826165E-016  2.479389089521946E-017
  -151.043831525039      -5.938347474514108E-016 -5.353665847770217E-016
  -150.250950519658       8.413286072162773E-017  8.773200500533795E-016
  -149.458069514277       6.020844768181905E-016 -7.130988315347268E-016
  -148.665188508897      -9.622808861019544E-016  8.626599371186500E-018
  -147.872307503516       5.938066702647117E-016  7.810195328746502E-016
  -147.079426498135       3.448943811223784E-016 -9.442726384528424E-016
  -146.286545492754      -1.040072788221672E-015  1.594812156034671E-016
  -145.493664487374       6.379907528795528E-016  9.479038611056603E-016
  -144.700783481993       7.267600928089895E-016 -1.083950735655292E-015
  -143.907902476612      -1.539061942170036E-015 -3.812600276883117E-016
  -143.115021471231       1.649228545319587E-016  2.059489679497266E-015
  -142.322140465850       2.678449058917467E-015 -1.113723992393330E-015
  -141.529259460470      -2.885306168135516E-015 -3.310980545374249E-015
  -140.736378455089      -3.462163294844517E-015  6.253635389764050E-015
  -139.943497449708       1.233893967904067E-014  1.433379879155956E-015
  -139.150616444327      -7.393537449468997E-015 -2.158166398304225E-014
  -138.357735438947      -2.906651882190044E-014  3.262529531625483E-014
  -137.564854433566       8.511352811887443E-014  1.192401949011516E-014
  -136.771973428185      -8.624264760449286E-014 -1.472767394840159E-013
  -135.979092422804      -9.641711838183951E-014  3.220619050520530E-013
  -135.186211417423       5.545088282124046E-013 -3.304691634795426E-013
  -134.393330412043      -1.178010328970604E-012 -1.584146432126646E-013
  -133.600449406662       1.522504490901554E-012  1.400606401139256E-012
  -132.807568401281      -8.806499838186801E-013 -3.246028432178074E-012
  -132.014687395900      -1.325207759424750E-012  4.887656632937224E-012
  -131.221806390520       4.936099478958437E-012 -5.000626324852855E-012
  -130.428925385139      -8.634922553945597E-012  2.443736620514766E-012
  -129.636044379758       1.022515313332910E-011  2.714731188240714E-012
  -128.843163374377      -7.818606841496413E-012 -8.551212759353632E-012
  -128.050282368996       1.432135062706964E-012  1.181923987607277E-011
  -127.257401363616       6.179021781830662E-012 -9.843972475451418E-012
  -126.464520358235      -1.057231571386157E-011  2.809453938449835E-012
  -125.671639352854       8.519035106929129E-012  5.401269578910953E-012
  -124.878758347473      -9.755162202134666E-013 -9.212280364488128E-012
  -124.085877342092      -6.568950929836132E-012  5.568015257171395E-012
  -123.292996336712       7.761291899204664E-012  2.720038121238390E-012
  -122.500115331331      -1.104091665507134E-012 -8.100843463175600E-012
  -121.707234325950      -7.237577474929210E-012  4.551916351122531E-012
  -120.914353320569       7.732093145866407E-012  5.481499758207079E-012
  -120.121472315189       2.690032709292929E-012 -1.085791541852603E-011
  -119.328591309808      -1.395757650683884E-011  1.780979893421124E-012
  -118.535710304427       9.139153615501510E-012  1.645335390583471E-011
  -117.742829299046       1.632725380026971E-011 -2.103689332893819E-011
  -116.949948293665      -3.857307694902363E-011 -8.666600116317822E-012
  -116.157067288285       1.582363359641788E-011  5.886917294056011E-011
  -115.364186282904       6.737963987688557E-011 -6.902802471932619E-011
  -114.571305277523      -1.520447088693875E-010 -2.819118767834996E-011
  -113.778424272142       1.105675770400095E-010  2.217784557543017E-010
  -112.985543266762       1.558202656445126E-010 -3.595679989464416E-010
  -112.192662261381      -5.698408967973032E-010  2.008713001542469E-010
  -111.399781256000       8.120051037589375E-010  3.855390178934624E-010
  -110.606900250619      -4.702776244249812E-010 -1.190109590907211E-009
  -109.814019245238      -6.028027264993270E-010  1.624965994570211E-009
  -109.021138239858       1.963233101185503E-009 -1.050547238570141E-009
  -108.228257234477      -2.636696151140312E-009 -6.401709812472934E-010
  -107.435376229096       1.738166908989837E-009  2.621089073953292E-009
  -106.642495223715       6.592917927134321E-010 -3.424282137785537E-009
  -105.849614218334      -3.145837420161628E-009  2.001077509632629E-009
  -105.056733212954       3.716618001005515E-009  1.122075917870136E-009
  -104.263852207573      -1.429720045554578E-009 -3.716820992184652E-009
  -103.470971202192      -2.286366691145640E-009  3.371045911224217E-009
  -102.678090196811       4.202425579575042E-009  1.704205257113551E-010
  -101.885209191431      -1.993764560089510E-009 -3.962997963058818E-009
  -101.092328186050      -2.888846716839375E-009  3.872846093104129E-009
  -100.299447180669       5.360860596875498E-009  1.152850452552487E-009
  -99.5065661752882      -1.249128960672815E-009 -6.410688577922067E-009
  -98.7136851699074      -6.848060472859425E-009  4.517255678866641E-009
  -97.9208041645266       8.997840621523131E-009  6.137172201100637E-009
  -97.1279231591459       3.019261929665439E-009 -1.497749238900529E-008
  -96.3350421537651      -2.202135528575582E-008  4.998305021215642E-009
  -95.5421611483843       2.195853753558737E-008  2.722370323385091E-008
  -94.7492801430035       2.159853465335874E-008 -5.204268000477655E-008
  -93.9563991376227      -9.239389488221160E-008  1.455927194607235E-008
  -93.1635181322419       1.093421019728802E-007  1.144028815652274E-007
  -92.3706371268612       3.797501479958241E-008 -2.669895922358679E-007
  -91.5777561214804      -3.807503043287635E-007  2.530351991763691E-007
  -90.7848751160996       7.467648915737118E-007  1.490772461585200E-007
  -89.9919941107188      -7.407899802719342E-007 -9.841573924503086E-007
  -89.1991131053380      -6.680467469581318E-008  1.913440050042361E-006
  -88.4062320999573       1.771887804526417E-006 -2.211712248179039E-006
  -87.6133510945765      -3.808303084634391E-006  1.111373276082063E-006
  -86.8204700891957       4.979227229389884E-006  1.595256961301111E-006
  -86.0275890838149      -4.030318808856736E-006 -5.068119871731842E-006
  -85.2347080784341       5.692189529458699E-007  7.519725515865319E-006
  -84.4418270730533       4.260457059701841E-006 -7.107843783284259E-006
  -83.6489460676726      -8.008949863646395E-006  3.247148886427285E-006
  -82.8560650622918       8.236603730269269E-006  2.546174225910061E-006
  -82.0631840569110      -4.265593483518665E-006 -7.127115602639426E-006
  -81.2703030515302      -1.887889849829498E-006  7.581529396873174E-006
  -80.4774220461494       6.407483218227012E-006 -3.410403952012584E-006
  -79.6845410407687      -6.199180107610725E-006 -2.641628875067725E-006
  -78.8916600353879       1.405409108688281E-006  6.164222240095486E-006
  -78.0987790300071       4.203026888362788E-006 -4.362720075539281E-006
  -77.3058980246263      -5.828183949433663E-006 -1.347198089610145E-006
  -76.5130170192455       1.698747690573057E-006  5.891884620107272E-006
  -75.7201360138647       4.724162286114233E-006 -4.550945140108388E-006
  -74.9272550084840      -6.950323196446539E-006 -2.374320427899986E-006
  -74.1343740031032       1.249754973755414E-006  8.520690176819826E-006
  -73.3414929977224       8.519856084098345E-006 -6.228275986068274E-006
  -72.5486119923416      -1.221679800981501E-005 -5.647234282913842E-006
  -71.7557309869608       1.831409477573081E-006  1.765074349699787E-005
  -70.9628499815800       1.870102000422870E-005 -1.502381454936949E-005
  -70.1699689761993      -3.165281001503435E-005 -9.050566728967694E-006
  -69.3770879708185       1.690592250231399E-005  4.210983690749339E-005
  -68.5842069654377       2.889914794916997E-005 -5.498691362535729E-005
  -67.7913259600569      -8.065548475412410E-005  2.176264875442681E-005
  -66.9984449546761       9.467765197614855E-005  5.453689607097777E-005
  -66.2055639492953      -3.964278465678633E-005 -1.319519918609771E-004
  -65.4126829439146      -7.146865803861604E-005  1.502538513191855E-004
  -64.6198019385338       1.764123125992488E-004 -7.473972456222213E-005
  -63.8269209331530      -1.988662156148254E-004 -6.748631441868598E-005
  -63.0340399277722       1.055772053696872E-004  1.922814074993690E-004
  -62.2411589223914       5.725928066378068E-005 -2.115965283617603E-004
  -61.4482779170106      -1.846097890362557E-004  1.020586105298399E-004
  -60.6553969116299       1.859201524439424E-004  6.577589653243675E-005
  -59.8625159062491      -5.968195545308616E-005 -1.709431160553073E-004
  -59.0696349008683      -9.496980388269480E-005  1.352044914701289E-004
  -58.2767538954875       1.516338604946544E-004  6.663877961902330E-006
  -57.4838728901067      -6.471798646786091E-005 -1.265728163754545E-004
  -56.6909918847260      -8.074974195085714E-005  1.111679728476022E-004
  -55.8981108793452       1.358399105240659E-004  2.710778227212902E-005
  -55.1052298739644      -3.004361343922131E-005 -1.438329418038594E-004
  -54.3123488685836      -1.368893303605128E-004  9.219144655886183E-005
  -53.5194678632028       1.632289545145779E-004  1.102026269352469E-004
  -52.7265868578220       4.910926398819768E-005 -2.448906263706058E-004
  -51.9337058524413      -3.272357385191611E-004  7.450578165839469E-005
  -51.1408248470605       3.003647551908805E-004  3.677900896179353E-004
  -50.3479438416797       2.561162740437735E-004 -6.525438056059091E-004
  -49.5550628362989      -1.046087409468880E-003  2.104735843277777E-004
  -48.7621818309181       1.228297808048341E-003  1.104187789130013E-003
  -47.9693008255373       5.424214734640788E-005 -2.559553408945070E-003
  -47.1764198201566      -2.832080243179149E-003  2.696968529554704E-003
  -46.3835388147758       5.790233674626384E-003 -2.307510741467059E-004
  -45.5906578093950      -6.673994214589563E-003 -4.774628801121875E-003
  -44.7977768040142       3.642991773532732E-003  1.033879272351893E-002
  -44.0048957986334       3.193861845565669E-003 -1.329098763993266E-002
  -43.2120147932526      -1.121744129568452E-002  1.112319924457400E-002
  -42.4191337878719       1.641141163211448E-002 -3.863245572881369E-003
  -41.6262527824911      -1.571393113830184E-002 -5.427498004879452E-003
  -40.8333717771103       9.128761687018188E-003  1.217039136150590E-002
  -40.0404907717295      -2.803655652686517E-005 -1.302874580086917E-002
  -39.2476097663487      -6.802964224957882E-003  8.084485221423174E-003
  -38.4547287609680       8.194164318418636E-003 -8.118518718044823E-004
  -37.6618477555872      -4.582017362773860E-003 -4.281661837035392E-003
  -36.8689667502064      -5.296669972350612E-004  4.722548328664602E-003
  -36.0760857448256       3.287701891995031E-003 -1.583075038421750E-003
  -35.2832047394448      -2.325106104986579E-003 -1.715156387416359E-003
  -34.4903237340640      -5.083171040624463E-004  2.342108879860146E-003
  -33.6974427286833       2.084774481468140E-003 -3.282779105399345E-004
  -32.9045617233025      -9.371117285591555E-004 -1.758739493784143E-003
  -32.1116807179217      -1.409092544185470E-003  1.461849481814229E-003
  -31.3187997125409       2.010563657499116E-003  9.802887121475770E-004
  -30.5259187071601       3.254922325472529E-004 -2.638654766644636E-003
  -29.7330377017793      -3.288056276525052E-003  8.157191669658915E-004
  -28.9401566963986       2.807045159337670E-003  3.619480846218283E-003
  -28.1472756910178       2.709780156920733E-003 -5.888345515098634E-003
  -27.3543946856370      -9.375349546279735E-003  1.142581703213210E-003
  -26.5615136802562       9.502492456920867E-003  1.016263204732281E-002
  -25.7686326748754       2.222501246170822E-003 -2.020654093107031E-002
  -24.9757516694946      -2.256775389579578E-002  1.806191424453142E-002
  -24.1828706641139       3.925968899571707E-002  1.747382647205886E-003
  -23.3899896587331      -3.816935010725438E-002 -3.276593446362185E-002
  -22.5971086533523       1.396071541551984E-002  5.824723343740897E-002
  -21.8042276479715       2.384071798904065E-002 -6.133903925212039E-002
  -21.0113466425907      -5.509202764024870E-002  3.723141413493563E-002
  -20.2184656372100       6.184796838511005E-002  1.972208893732295E-003
  -19.4255846318292      -4.089354100178854E-002 -3.432001485118331E-002
  -18.6327036264484       6.377947560991368E-003  4.270875797460769E-002
  -17.8398226210676       2.009355515443427E-002 -2.649429513922133E-002
  -17.0469416156868      -2.481295025032433E-002  1.024243238770271E-003
  -16.2540606103060       1.099333702156285E-002  1.471443280101851E-002
  -15.4611796049253       5.601550670842245E-003 -1.255920346374163E-002
  -14.6682985995445      -1.065201987342806E-002  3.681543573730523E-005
  -13.8754175941637       2.979667344845142E-003  8.187462106569773E-003
  -13.0825365887829       6.186211399489783E-003 -4.520116886693067E-003
  -12.2896555834021      -5.603289865108573E-003 -4.754340299196250E-003
  -11.4967745780213      -3.671819501635473E-003  6.843030696946645E-003
  -10.7038935726406       8.727117644150023E-003  2.543166338309585E-003
  -9.91101256725978       6.264079835801120E-004 -1.176799138332461E-002
  -9.11813156187900      -1.641738616189051E-002  3.705560435333451E-003
  -8.32525055649822       1.400079771334393E-002  2.214590218390841E-002
  -7.53236955111743       2.397512412521991E-002 -3.663443103401332E-002
  -6.73948854573665      -7.692373429009472E-002 -3.904615965598162E-003
  -5.94660754035587       7.761120618498135E-002  0.115860988949554     
  -5.15372653497509       5.576420153438914E-002 -0.247276671074731     
  -4.36084552959430      -0.357563838546460       0.274588546745675     
  -3.56796452421352       0.762843021428627      -5.576743204944364E-002
  -2.77508351883274       -1.10965636031515      -0.479724927315225     
  -1.98220251345196        1.20888697635188        1.25630590899856     
  -1.18932150807117      -0.947313539041515       -2.04792265512403     
 -0.396440502690391       0.361302249266250        2.56490411266811     
  0.396440502690391       0.361302249266250       -2.56490411266811     
   1.18932150807117      -0.947313539041515        2.04792265512403     
   1.98220251345196        1.20888697635188       -1.25630590899856     
   2.77508351883274       -1.10965636031515       0.479724927315225     
   3.56796452421352       0.762843021428627       5.576743204944364E-002
   4.36084552959430      -0.357563838546460      -0.274588546745675     
   5.15372653497509       5.576420153438914E-002  0.247276671074731     
   5.94660754035587       7.761120618498135E-002 -0.115860988949554     
   6.73948854573665      -7.692373429009472E-002  3.904615965598162E-003
   7.53236955111743       2.397512412521991E-002  3.663443103401332E-002
   8.32525055649822       1.400079771334393E-002 -2.214590218390841E-002
   9.11813156187900      -1.641738616189051E-002 -3.705560435333451E-003
   9.91101256725978       6.264079835801120E-004  1.176799138332461E-002
   10.7038935726406       8.727117644150023E-003 -2.543166338309585E-003
   11.4967745780213      -3.671819501635473E-003 -6.843030696946645E-003
   12.2896555834021      -5.603289865108573E-003  4.754340299196250E-003
   13.0825365887829       6.186211399489783E-003  4.520116886693067E-003
   13.8754175941637       2.979667344845142E-003 -8.187462106569773E-003
   14.6682985995445      -1.065201987342806E-002 -3.681543573730523E-005
   15.4611796049253       5.601550670842245E-003  1.255920346374163E-002
   16.2540606103060       1.099333702156285E-002 -1.471443280101851E-002
   17.0469416156868      -2.481295025032433E-002 -1.024243238770271E-003
   17.8398226210676       2.009355515443427E-002  2.649429513922133E-002
   18.6327036264484       6.377947560991368E-003 -4.270875797460769E-002
   19.4255846318292      -4.089354100178854E-002  3.432001485118331E-002
   20.2184656372100       6.184796838511005E-002 -1.972208893732295E-003
   21.0113466425907      -5.509202764024870E-002 -3.723141413493563E-002
   21.8042276479715       2.384071798904065E-002  6.133903925212039E-002
   22.5971086533523       1.396071541551984E-002 -5.824723343740897E-002
   23.3899896587331      -3.816935010725438E-002  3.276593446362185E-002
   24.1828706641139       3.925968899571707E-002 -1.747382647205886E-003
   24.9757516694946      -2.256775389579578E-002 -1.806191424453142E-002
   25.7686326748754       2.222501246170822E-003  2.020654093107031E-002
   26.5615136802562       9.502492456920867E-003 -1.016263204732281E-002
   27.3543946856370      -9.375349546279735E-003 -1.142581703213210E-003
   28.1472756910178       2.709780156920733E-003  5.888345515098634E-003
   28.9401566963986       2.807045159337670E-003 -3.619480846218283E-003
   29.7330377017793      -3.288056276525052E-003 -8.157191669658915E-004
   30.5259187071601       3.254922325472529E-004  2.638654766644636E-003
   31.3187997125409       2.010563657499116E-003 -9.802887121475770E-004
   32.1116807179217      -1.409092544185470E-003 -1.461849481814229E-003
   32.9045617233025      -9.371117285591555E-004  1.758739493784143E-003
   33.6974427286833       2.084774481468140E-003  3.282779105399345E-004
   34.4903237340640      -5.083171040624463E-004 -2.342108879860146E-003
   35.2832047394448      -2.325106104986579E-003  1.715156387416359E-003
   36.0760857448256       3.287701891995031E-003  1.583075038421750E-003
   36.8689667502064      -5.296669972350612E-004 -4.722548328664602E-003
   37.6618477555872      -4.582017362773860E-003  4.281661837035392E-003
   38.4547287609680       8.194164318418636E-003  8.118518718044823E-004
   39.2476097663487      -6.802964224957882E-003 -8.084485221423174E-003
   40.0404907717295      -2.803655652686517E-005  1.302874580086917E-002
   40.8333717771103       9.128761687018188E-003 -1.217039136150590E-002
   41.6262527824911      -1.571393113830184E-002  5.427498004879452E-003
   42.4191337878719       1.641141163211448E-002  3.863245572881369E-003
   43.2120147932526      -1.121744129568452E-002 -1.112319924457400E-002
   44.0048957986334       3.193861845565669E-003  1.329098763993266E-002
   44.7977768040142       3.642991773532732E-003 -1.033879272351893E-002
   45.5906578093950      -6.673994214589563E-003  4.774628801121875E-003
   46.3835388147758       5.790233674626384E-003  2.307510741467059E-004
   47.1764198201566      -2.832080243179149E-003 -2.696968529554704E-003
   47.9693008255373       5.424214734640788E-005  2.559553408945070E-003
   48.7621818309181       1.228297808048341E-003 -1.104187789130013E-003
   49.5550628362989      -1.046087409468880E-003 -2.104735843277777E-004
   50.3479438416797       2.561162740437735E-004  6.525438056059091E-004
   51.1408248470605       3.003647551908805E-004 -3.677900896179353E-004
   51.9337058524412      -3.272357385191611E-004 -7.450578165839469E-005
   52.7265868578220       4.910926398819768E-005  2.448906263706058E-004
   53.5194678632028       1.632289545145779E-004 -1.102026269352469E-004
   54.3123488685836      -1.368893303605128E-004 -9.219144655886183E-005
   55.1052298739644      -3.004361343922131E-005  1.438329418038594E-004
   55.8981108793452       1.358399105240659E-004 -2.710778227212902E-005
   56.6909918847259      -8.074974195085714E-005 -1.111679728476022E-004
   57.4838728901067      -6.471798646786091E-005  1.265728163754545E-004
   58.2767538954875       1.516338604946544E-004 -6.663877961902330E-006
   59.0696349008683      -9.496980388269480E-005 -1.352044914701289E-004
   59.8625159062491      -5.968195545308616E-005  1.709431160553073E-004
   60.6553969116299       1.859201524439424E-004 -6.577589653243675E-005
   61.4482779170106      -1.846097890362557E-004 -1.020586105298399E-004
   62.2411589223914       5.725928066378068E-005  2.115965283617603E-004
   63.0340399277722       1.055772053696872E-004 -1.922814074993690E-004
   63.8269209331530      -1.988662156148254E-004  6.748631441868598E-005
   64.6198019385338       1.764123125992488E-004  7.473972456222213E-005
   65.4126829439146      -7.146865803861604E-005 -1.502538513191855E-004
   66.2055639492953      -3.964278465678633E-005  1.319519918609771E-004
   66.9984449546761       9.467765197614855E-005 -5.453689607097777E-005
   67.7913259600569      -8.065548475412410E-005 -2.176264875442681E-005
   68.5842069654377       2.889914794916997E-005  5.498691362535729E-005
   69.3770879708185       1.690592250231399E-005 -4.210983690749339E-005
   70.1699689761992      -3.165281001503435E-005  9.050566728967694E-006
   70.9628499815800       1.870102000422870E-005  1.502381454936949E-005
   71.7557309869608       1.831409477573081E-006 -1.765074349699787E-005
   72.5486119923416      -1.221679800981501E-005  5.647234282913842E-006
   73.3414929977224       8.519856084098345E-006  6.228275986068274E-006
   74.1343740031032       1.249754973755414E-006 -8.520690176819826E-006
   74.9272550084840      -6.950323196446539E-006  2.374320427899986E-006
   75.7201360138647       4.724162286114233E-006  4.550945140108388E-006
   76.5130170192455       1.698747690573057E-006 -5.891884620107272E-006
   77.3058980246263      -5.828183949433663E-006  1.347198089610145E-006
   78.0987790300071       4.203026888362788E-006  4.362720075539281E-006
   78.8916600353879       1.405409108688281E-006 -6.164222240095486E-006
   79.6845410407687      -6.199180107610725E-006  2.641628875067725E-006
   80.4774220461494       6.407483218227012E-006  3.410403952012584E-006
   81.2703030515302      -1.887889849829498E-006 -7.581529396873174E-006
   82.0631840569110      -4.265593483518665E-006  7.127115602639426E-006
   82.8560650622918       8.236603730269269E-006 -2.546174225910061E-006
   83.6489460676726      -8.008949863646395E-006 -3.247148886427285E-006
   84.4418270730533       4.260457059701841E-006  7.107843783284259E-006
   85.2347080784341       5.692189529458699E-007 -7.519725515865319E-006
   86.0275890838149      -4.030318808856736E-006  5.068119871731842E-006
   86.8204700891957       4.979227229389884E-006 -1.595256961301111E-006
   87.6133510945765      -3.808303084634391E-006 -1.111373276082063E-006
   88.4062320999573       1.771887804526417E-006  2.211712248179039E-006
   89.1991131053380      -6.680467469581318E-008 -1.913440050042361E-006
   89.9919941107188      -7.407899802719342E-007  9.841573924503086E-007
   90.7848751160996       7.467648915737118E-007 -1.490772461585200E-007
   91.5777561214804      -3.807503043287635E-007 -2.530351991763691E-007
   92.3706371268612       3.797501479958241E-008  2.669895922358679E-007
   93.1635181322419       1.093421019728802E-007 -1.144028815652274E-007
   93.9563991376227      -9.239389488221160E-008 -1.455927194607235E-008
   94.7492801430035       2.159853465335874E-008  5.204268000477655E-008
   95.5421611483843       2.195853753558737E-008 -2.722370323385091E-008
   96.3350421537651      -2.202135528575582E-008 -4.998305021215642E-009
   97.1279231591459       3.019261929665439E-009  1.497749238900529E-008
   97.9208041645266       8.997840621523131E-009 -6.137172201100637E-009
   98.7136851699074      -6.848060472859425E-009 -4.517255678866641E-009
   99.5065661752882      -1.249128960672815E-009  6.410688577922067E-009
   100.299447180669       5.360860596875498E-009 -1.152850452552487E-009
   101.092328186050      -2.888846716839375E-009 -3.872846093104129E-009
   101.885209191431      -1.993764560089510E-009  3.962997963058818E-009
   102.678090196811       4.202425579575042E-009 -1.704205257113551E-010
   103.470971202192      -2.286366691145640E-009 -3.371045911224217E-009
   104.263852207573      -1.429720045554578E-009  3.716820992184652E-009
   105.056733212954       3.716618001005515E-009 -1.122075917870136E-009
   105.849614218334      -3.145837420161628E-009 -2.001077509632629E-009
   106.642495223715       6.592917927134321E-010  3.424282137785537E-009
   107.435376229096       1.738166908989837E-009 -2.621089073953292E-009
   108.228257234477      -2.636696151140312E-009  6.401709812472934E-010
   109.021138239858       1.963233101185503E-009  1.050547238570141E-009
   109.814019245238      -6.028027264993270E-010 -1.624965994570211E-009
   110.606900250619      -4.702776244249812E-010  1.190109590907211E-009
   111.399781256000       8.120051037589375E-010 -3.855390178934624E-010
   112.192662261381      -5.698408967973032E-010 -2.008713001542469E-010
   112.985543266762       1.558202656445126E-010  3.595679989464416E-010
   113.778424272142       1.105675770400095E-010 -2.217784557543017E-010
   114.571305277523      -1.520447088693875E-010  2.819118767834996E-011
   115.364186282904       6.737963987688557E-011  6.902802471932619E-011
   116.157067288285       1.582363359641788E-011 -5.886917294056011E-011
   116.949948293665      -3.857307694902363E-011  8.666600116317822E-012
   117.742829299046       1.632725380026971E-011  2.103689332893819E-011
   118.535710304427       9.139153615501510E-012 -1.645335390583471E-011
   119.328591309808      -1.395757650683884E-011 -1.780979893421124E-012
   120.121472315189       2.690032709292929E-012  1.085791541852603E-011
   120.914353320569       7.732093145866407E-012 -5.481499758207079E-012
   121.707234325950      -7.237577474929210E-012 -4.551916351122531E-012
   122.500115331331      -1.104091665507134E-012  8.100843463175600E-012
   123.292996336712       7.761291899204664E-012 -2.720038121238390E-012
   124.085877342092      -6.568950929836132E-012 -5.568015257171395E-012
   124.878758347473      -9.755162202134666E-013  9.212280364488128E-012
   125.671639352854       8.519035106929129E-012 -5.401269578910953E-012
   126.464520358235      -1.057231571386157E-011 -2.809453938449835E-012
   127.257401363616       6.179021781830662E-012  9.843972475451418E-012
   128.050282368996       1.432135062706964E-012 -1.181923987607277E-011
   128.843163374377      -7.818606841496413E-012  8.551212759353632E-012
   129.636044379758       1.022515313332910E-011 -2.714731188240714E-012
   130.428925385139      -8.634922553945597E-012 -2.443736620514766E-012
   131.221806390520       4.936099478958437E-012  5.000626324852855E-012
   132.014687395900      -1.325207759424750E-012 -4.887656632937224E-012
   132.807568401281      -8.806499838186801E-013  3.246028432178074E-012
   133.600449406662       1.522504490901554E-012 -1.400606401139256E-012
   134.393330412043      -1.178010328970604E-012  1.584146432126646E-013
   135.186211417423       5.545088282124046E-013  3.304691634795426E-013
   135.979092422804      -9.641711838183951E-014 -3.220619050520530E-013
   136.771973428185      -8.624264760449286E-014  1.472767394840159E-013
   137.564854433566       8.511352811887443E-014 -1.192401949011516E-014
   138.357735438947      -2.906651882190044E-014 -3.262529531625483E-014
   139.150616444327      -7.393537449468997E-015  2.158166398304225E-014
   139.943497449708       1.233893967904067E-014 -1.433379879155956E-015
   140.736378455089      -3.462163294844517E-015 -6.253635389764050E-015
   141.529259460470      -2.885306168135516E-015  3.310980545374249E-015
   142.322140465850       2.678449058917467E-015  1.113723992393330E-015
   143.115021471231       1.649228545319587E-016 -2.059489679497266E-015
   143.907902476612      -1.539061942170036E-015  3.812600276883117E-016
   144.700783481993       7.267600928089895E-016  1.083950735655292E-015
   145.493664487374       6.379907528795528E-016 -9.479038611056603E-016
   146.286545492754      -1.040072788221672E-015 -1.594812156034671E-016
   147.079426498135       3.448943811223784E-016  9.442726384528424E-016
   147.872307503516       5.938066702647117E-016 -7.810195328746502E-016
   148.665188508897      -9.622808861019544E-016 -8.626599371186500E-018
   149.458069514277       6.020844768181905E-016  7.130988315347268E-016
   150.250950519658       8.413286072162773E-017 -8.773200500533795E-016
   151.043831525039      -5.938347474514108E-016  5.353665847770217E-016
   151.836712530420       6.886932301826165E-016 -2.479389089521946E-017
   152.629593535801      -4.519641206324133E-016 -3.305154009289474E-016
   153.422474541181       1.210142674679816E-016  4.094656213240692E-016
   154.215355546562       1.088924795095291E-016 -2.853098578848395E-016
   155.008236551943      -1.763058072481241E-016  1.055467267240998E-016
   155.801117557324       1.293379989100914E-016  2.029644378824708E-017
   156.593998562705      -5.015583940280889E-017 -6.198240492344032E-017
   157.386879568085      -4.823675209657727E-018  4.672006654896743E-017
   158.179760573466       2.190194044682886E-017 -1.599858310868787E-017
   158.972641578847      -1.504265549695602E-017 -4.033086474747962E-018
   159.765522584228       3.191995812033805E-018  8.434526003978374E-018
   160.558403589608       3.163522669764949E-018 -4.297554730993420E-018
   161.351284594989      -3.247215843653424E-018 -3.304612425420190E-019
   162.144165600370       8.127242168968318E-019  1.917414235837663E-018
   162.937046605751       8.835077224922637E-019 -1.079217327058180E-018
   163.729927611132      -9.624202924748707E-019 -2.022308633622764E-019
   164.522808616512       2.020948361214421E-019  7.012265610100202E-019
   165.315689621893       3.994584663830832E-019 -4.034750820404695E-019
   166.108570627274      -4.471309689343466E-019 -1.077760419424841E-019
   166.901451632655       1.322356882218470E-019  3.607357277817361E-019
   167.694332638036       1.792901677762153E-019 -2.735341487747347E-019
   168.487213643416      -2.780958287279203E-019  3.201025850245065E-020
   169.280094648797       1.809145663826364E-019  1.539285406260134E-019
   170.072975654178      -1.967486533269015E-020 -1.960699567262372E-019
   170.865856659559      -9.140315810040561E-020  1.285662053899536E-019
   171.658737664939       1.160154977441766E-019 -3.253515405243663E-020
   172.451618670320      -8.087487788938883E-020 -3.219572493943528E-020
   173.244499675701       3.107292212713677E-020  5.031611071636104E-020
   174.037380681082       3.256664002691554E-021 -3.755137428674668E-020
   174.830261686463      -1.525149437192520E-020  1.663309906041851E-020
   175.623142691843       1.262257472118219E-020 -1.818882656757562E-021
   176.416023697224      -5.716898318029836E-021 -3.787560298222866E-021
   177.208904702605       7.201019551884858E-022  3.473664045715240E-021
   178.001785707986       1.064408481467807E-021 -1.437500548680363E-021
   178.794666713366      -8.915631606091506E-022  2.405707502898364E-023
   179.587547718747       2.616128768345917E-022  3.618198784058430E-022
   180.380428724128       9.037765881389645E-023 -2.090569651281333E-022
   181.173309729509      -1.196927081055000E-022  8.716878599398757E-024
   181.966190734890       3.208243882706633E-023  5.778533342830004E-023
   182.759071740270       2.368328306455824E-023 -3.022514350590598E-023
   183.551952745651      -2.271394523235615E-023 -6.691492132436726E-024
   184.344833751032       1.320958079679382E-024  1.548693681765862E-023
   185.137714756413       9.701005698388131E-024 -4.866256429560972E-024
   185.930595761794      -6.122377448006729E-024 -5.193521702532130E-024
   186.723476767174      -1.640873606281021E-024  6.026771709043004E-024
   187.516357772555       4.940108985729378E-024 -1.093867662012389E-024
   188.309238777936      -2.891189338088723E-024 -3.067997698184477E-024
   189.102119783317      -7.714082567194081E-025  3.478628586318800E-024
   189.895000788697       2.725519080264591E-024 -1.280207802177395E-024
   190.687881794078      -2.294351814691158E-024 -1.013010864593934E-024
   191.480762799459       7.027932334553282E-025  1.905747996116124E-024
   192.273643804840       6.208533911924469E-025 -1.453803114569070E-024
   193.066524810221      -1.057605244128958E-024  5.032271370907142E-025
   193.859405815601       7.935956189027690E-025  2.094043959200152E-025
   194.652286820982      -3.140563561424503E-025 -4.421019547202915E-025
   195.445167826363      -2.865595969590384E-026  3.367281225972065E-025
   196.238048831744       1.442230788349107E-025 -1.376692664954622E-025
   197.030929837124      -1.121471285943694E-025  5.332124018475636E-028
   197.823810842505       4.245727370997197E-026  4.342522038289190E-026
   198.616691847886       2.529214804228771E-027 -3.194500902586181E-026
   199.409572853267      -1.394561996684571E-026  9.183929029734552E-027
   200.202453858648       8.078711913688992E-027  3.269414646392825E-027
   200.995334864028      -7.546393408036356E-028 -4.558335411673466E-027
   201.788215869409      -1.986957191079577E-027  1.551300075443776E-027
   202.581096874790       1.288783500705286E-027  6.232575275734447E-028
   203.373977880171       2.002518836525033E-029 -8.537219960688000E-028
   204.166858885551      -4.988505111612506E-028  2.025972132799200E-028
   204.959739890932       2.559529342239424E-028  2.530603886574246E-028
   205.752620896313       9.084186024671163E-029 -2.383333703416247E-028
   206.545501901694      -1.903795129121650E-028  1.438530888859151E-029
   207.338382907075       7.858881477143175E-029  1.277278049442697E-028
   208.131263912455       5.825566731221760E-029 -1.077233226768454E-028
   208.924144917836      -1.024185015732389E-028  8.552372008712375E-030
   209.717025923217       5.790203992887891E-029  6.557298384649261E-029
   210.509906928598       1.069910791606380E-029 -7.369470525396113E-029
   211.302787933979      -5.082696995799278E-029  3.638569762030769E-029
   212.095668939359       5.063982893694173E-029  6.416273020259224E-030
   212.888549944740      -2.725603454568940E-029 -2.935962689593531E-029
   213.681430950121       2.774281055016275E-030  2.978206527923118E-029
   214.474311955502       1.071413328146698E-029 -1.815851634544189E-029
   215.267192960882      -1.270280981133943E-029  5.797644509231156E-030
   216.060073966263       8.535640149571374E-030  1.542073741886048E-030
   216.852954971644      -3.538259310545331E-030 -3.618515281704125E-030
   217.645835977025       3.679912472264045E-031  2.761486459256129E-030
   218.438716982406       7.547875364172041E-031 -1.246469447563555E-030
   219.231597987786      -6.974236768502673E-031  2.193103884014564E-031
   220.024478993167       3.174289310058488E-031  1.607053194546034E-031
   220.817359998548      -4.582922477334657E-032 -1.637414432322586E-031
   221.610241003929      -4.654122662656624E-032  6.608285220241358E-032
   222.403122009309       3.869811561538327E-032 -5.803394243590951E-034
   223.196003014690      -1.054316014706967E-032 -1.567204103764121E-032
   223.988884020071      -4.095368121232022E-033  8.564574064995442E-033
   224.781765025452       4.948942816348237E-033 -2.511271075274234E-034
   225.574646030833      -1.347423541883755E-033 -2.342866549334161E-033
   226.367527036213      -8.624488746323786E-034  1.282763958849332E-033
   227.160408041594       9.190326316954852E-034  1.273321131911921E-034
   227.953289046975      -1.863538665692696E-034 -5.528893300919005E-034
   228.746170052356      -2.648270500181576E-034  2.763727705366516E-034
   229.539051057737       2.519341857256213E-034  6.557891478096246E-035
   230.331932063117      -5.200325493806559E-035 -1.744951726892984E-034
   231.124813068498      -8.329875757003570E-035  9.949370002155997E-035
   231.917694073879       9.306458421092113E-035  6.563635990782658E-036
   232.710575079260      -3.777720584465157E-035 -5.533322572225252E-035
   233.503456084640      -1.230068274906660E-035  4.598075598311306E-035
   234.296337090021       2.932144757770208E-035 -1.548703883710028E-035
   235.089218095402      -2.144044985069476E-035 -6.779154936149424E-036
   235.882099100783       7.030420826400422E-036  1.297351661581837E-035
   236.674980106164       2.355273304413832E-036 -9.030287716248343E-036
   237.467861111544      -4.774265107586933E-036  3.070835362125486E-036
   238.260742116925       3.270594779324322E-036  5.730434437424720E-037
   239.053623122306      -1.121954165302903E-036 -1.497272345974373E-036
   239.846504127687      -1.300789849240954E-037  1.010825250384815E-036
   240.639385133067       4.298624301873646E-037 -3.257745198743814E-037
   241.432266138448      -2.748320308050983E-037 -4.834727599260804E-038
   242.225147143829       7.334615922370043E-038  1.217626507006505E-037
   243.018028149210       2.436153315304249E-038 -6.757642670284059E-038
   243.810909154591      -3.463697823884378E-038  1.082556525123208E-038
   244.603790159971       1.468612947241285E-038  1.118775980148670E-038
   245.396671165352       5.993848352965685E-040 -9.503020918587732E-039
   246.189552170733      -4.392173568225442E-039  2.403501834397953E-039
   246.982433176114       2.332579369015973E-039  1.351493591544639E-039
   247.775314181495      -1.093778312017623E-041 -1.490684264334946E-039
   248.568195186875      -7.298138693435672E-040  4.314607940829006E-040
   249.361076192256       4.328617200537604E-040  2.419118074301758E-040
   250.153957197637      -7.296090886556246E-042 -2.977450482655394E-040
   250.946838203018      -1.541387588219681E-040  9.902695180895915E-041
   251.739719208398       1.042323462176574E-040  4.857113539444555E-041
   252.532600213779      -1.084170722533191E-041 -7.251576913748954E-041
   253.325481219160      -3.437486280890431E-041  3.242952961164185E-041
   254.118362224541       3.012523654186296E-041  5.536436491976336E-042
   254.911243229922      -9.105430708865678E-042 -1.764964234503147E-041
   255.704124235302      -5.130270674554549E-042  1.174573692192959E-041
   256.497005240683       7.843454189142921E-042 -2.375128864490256E-042
   257.289886246064      -4.406787792251484E-042 -2.702581393871372E-042
   258.082767251445       6.188104240589008E-043  3.145290545949648E-042
   258.875648256826       1.128922179013591E-042 -1.588050293352274E-042
   259.668529262206      -1.145298939740019E-042  1.738985954850140E-043
   260.461410267587       5.374376655848585E-043  4.048190140589889E-043
   261.254291272968      -4.964382419243280E-044 -3.783971090678771E-043
   262.047172278349      -1.308612512668423E-043  1.661481824925529E-043
   262.840053283729       1.140991899919294E-043 -1.135466494176343E-044
   263.632934289110      -4.598709094391898E-044 -3.999065516165472E-044
   264.425815294491       8.443129005475378E-046  3.182951791592951E-044
   265.218696299872       1.197140981890254E-044 -1.121696433670766E-044
   266.011577305253      -8.315056952651496E-045 -9.110209393216931E-046
   266.804458310633       2.326004618135044E-045  3.540529018918919E-045
   267.597339316014       6.679774240584957E-046 -2.031553788156356E-045
   268.390220321395      -1.019351344201742E-045  3.563310223662119E-046
   269.183101326776       4.523487402133161E-046  3.076701894796520E-046
   269.975982332156      -6.933476862531156E-048 -2.787381476635697E-046
   270.768863337537      -1.154406304152677E-046  8.487892773731164E-047
   271.561744342918       7.015707067191173E-047  2.468994557593152E-047
   272.354625348299      -9.726361493334233E-048 -3.781279327791884E-047
   273.147506353680      -1.390538877508426E-047  1.539600760691725E-047
   273.940387359060       1.103104401061109E-047  1.703503959201403E-048
   274.733268364441      -2.521261988065797E-048 -5.532781959146678E-048
   275.526149369822      -1.781783456920244E-048  2.838769755698694E-048
   276.319030375203       1.867211914308704E-048 -4.932902053956412E-050
   277.111911380583      -6.103499707855220E-049 -8.556102891540826E-049
   277.904792385964      -2.043186274438244E-049  5.599305140892195E-049
   278.697673391345       3.285086177087456E-049 -8.768143580901441E-050
   279.490554396726      -1.502554433478747E-049 -1.237392668890315E-049
   280.283435402107      -6.375250705999986E-051  1.113813850970102E-049
   281.076316407487       5.324297296722669E-050 -3.527081209292891E-050
   281.869197412868      -3.442503808782689E-050 -1.193407158537197E-050
   282.662078418249       6.637202342972191E-051  1.957976665359550E-050
   283.454959423630       6.351205815006243E-051 -9.766677931606110E-051
   284.247840429011      -6.483245928731960E-051  6.224985194019150E-052
   285.040721434391       2.515747897072893E-051  2.589973955374583E-051
   285.833602439772       2.455818198535495E-052 -1.969867738203820E-051
   286.626483445153      -9.229283544727657E-052  5.667951662406121E-052
   287.419364450534       5.518715788559647E-052  2.002129094521138E-052
   288.212245455914      -9.961055199517295E-053 -3.005210840101205E-052
   289.005126461295      -9.429523728399596E-053  1.416487105842717E-052
   289.798007466676       9.108639188604795E-053 -6.491982108221003E-054
   290.590888472057      -3.250448372613284E-053 -3.668942754336471E-053
   291.383769477438      -5.130286298440609E-054  2.585711461887603E-053
   292.176650482818       1.279954369387930E-053 -6.204240539193558E-054
   292.969531488199      -6.860757793449339E-054 -3.514630885343379E-054
   293.762412493580       7.235478607978812E-055  4.135854801056127E-054
   294.555293498961       1.564325657109836E-054 -1.684455555143065E-054
   295.348174504342      -1.259070636289340E-054 -1.196134822274910E-055
   296.141055509722       3.743381115353829E-055  5.898532131699668E-055
   296.933936515103       1.278845117035926E-055 -3.651622751719162E-055
   297.726817520484      -2.020850557351503E-055  7.176081299490211E-056
   298.519698525865       1.017449202506881E-055  6.111384044308835E-056
   299.312579531245      -1.034597515022566E-056 -6.460608753461713E-056
   300.105460536626      -2.312455937695131E-056  2.736950612000490E-056
   300.898341542007       1.943691108651031E-056 -3.658174455555029E-058
   301.691222547388      -7.086016289004464E-057 -7.645756891080330E-057
   302.484103552769      -4.888090421754749E-058  5.491449894109707E-057
   303.276984558149       2.287597098753049E-057 -1.735405524189840E-057
   304.069865563530      -1.446658773972090E-057 -2.693694923231930E-058
   304.862746568911       3.879368721849797E-058  6.325991735704746E-058
   305.655627574292       1.066269404509483E-058 -3.528181643171488E-058
   306.448508579672      -1.646753959835790E-058  7.423237934027622E-059
   307.241389585053       7.911454199118642E-059  3.756386915081722E-059
   308.034270590434      -1.025059817394171E-059 -4.088457319196503E-059
   308.827151595815      -1.227323784365343E-059  1.606247457210949E-059
   309.620032601196       9.701069570572872E-060 -3.642972855681631E-062
   310.412913606576      -2.810241745620077E-060 -3.740113712451985E-060
   311.205794611957      -6.713306652109830E-061  2.174656538689964E-060
   311.998675617338       1.065000871136334E-060 -3.492326693892840E-061
   312.791556622719      -4.478051087712943E-061 -3.365767610473058E-061
   313.584437628099      -1.070068805941685E-062  2.844373187946190E-061
   314.377318633480       1.237118225281058E-061 -7.958957244788142E-062
   315.170199638861      -7.168281941167596E-062 -2.884392513462135E-062
   315.963080644242       1.002472640055489E-062  3.993211027672445E-062
   316.755961649623       1.395216167200056E-062 -1.724761927323563E-062
   317.548842655003      -1.203675124820930E-062 -1.919748250935541E-064
   318.341723660384       4.066124880324888E-063  5.130469569476338E-063
   319.134604665765       6.750306016705773E-064 -3.483019399282635E-063
   319.927485671146      -1.633491053021173E-063  9.805462754175475E-064
   320.720366676527       9.695825658364929E-064  2.754803351759032E-064
   321.513247681907      -2.481732383271600E-064 -4.598842998257732E-064
   322.306128687288      -7.560349614874918E-065  2.532146206567024E-064
   323.099009692669       1.136950041191084E-064 -6.276352134920733E-065
   323.891890698050      -5.964474925616488E-065 -1.646265758488687E-065
   324.684771703430       1.427401768640078E-065  2.472920645672288E-065
   325.477652708811       3.355106981451202E-066 -1.232172901393017E-065
   326.270533714192      -4.876296573042137E-066  2.647016235976411E-066
   327.063414719573       2.220422768211275E-066  7.729497492579732E-067
   327.856295724954      -3.563214453987483E-067 -9.097033231201334E-067
   328.649176730334      -2.003954450329067E-067  3.471532543000960E-067
   329.442057735715       1.625834964780072E-067 -1.852841481275212E-068
   330.234938741096      -4.383017993174502E-068 -5.070749807810584E-068
   331.027819746477      -8.081163995205866E-069  2.657826706613526E-068
   331.820700751857       1.142435908075755E-068 -2.728592632257879E-069
   332.613581757238      -3.425809807459547E-069 -3.782537752063305E-069
   333.406462762619      -7.960689292805538E-070  2.149483054279948E-069
   334.199343768000       1.062153999399020E-069 -1.196646890892177E-070
   334.992224773381      -2.819669626375175E-070 -4.353568339646977E-070
   335.785105778761      -1.321140963776318E-070  2.262376075736558E-070
   336.577986784142       1.373124713381922E-070  6.444771500384617E-072
   337.370867789523      -3.295127963489271E-071 -6.695458000886844E-071
   338.163748794904      -2.280938615262602E-071  3.486952915739876E-071
   338.956629800285       2.375224440108360E-071  2.227710587461791E-073
   339.749510805665      -7.742079645160920E-072 -1.131217567882687E-071
   340.542391811046      -2.492331994757774E-072  7.533508667605120E-072
   341.335272816427       4.250988528496652E-072 -1.663222933162493E-072
   342.128153821808      -2.309987339829527E-072 -1.162976476207345E-072
   342.921034827188       4.226178198804527E-073  1.367457697362447E-072
   343.713915832569       3.522176461627328E-073 -6.828384783134783E-073
   344.506796837950      -3.751366472896188E-073  1.326410504781798E-073
   345.299677843331       1.822779931991979E-073  7.751453657417586E-074
   346.092558848712      -3.949031592727429E-074 -8.600141722327934E-074
   346.885439854092      -1.338039792766694E-074  4.130617907547795E-074
   347.678320859473       1.683857098394380E-074 -9.188438539505833E-075
   348.471201864854      -7.878043207504485E-075 -2.271312186542869E-075
   349.264082870235       1.579074278647035E-075  3.025005750919925E-075
   350.056963875615       4.930023737542264E-076 -1.303734145326016E-075
   350.849844880996      -5.332544771222337E-076  1.827970013833052E-076
   351.642725886377       1.898541615559609E-076  1.259448555766210E-076
   352.435606891758      -3.151905349640595E-078 -9.280257743035365E-077
   353.228487897139      -3.126647207538819E-077  2.243703384241149E-077
   354.021368902519       1.513755798205579E-077  6.135640513712489E-078
   354.814249907900      -1.140368724195329E-078 -7.045712387919601E-078
   355.607130913281      -2.470268784782940E-078  2.067613808749598E-078
   356.400011918662       1.418327064863890E-078  4.976869403931372E-079
   357.192892924042      -1.494754479320253E-079 -7.084616342769821E-079
   357.985773929423      -2.573999888812155E-079  2.499089496278663E-079
   358.778654934804       1.777093466778773E-079  3.845622296852324E-080
   359.571535940185      -3.675857863701606E-080 -8.605837408880438E-080
   360.364416945566      -2.398487372587996E-080  4.216396482801000E-080
   361.157297950946       2.475311923719540E-080 -4.173858396936889E-081
   361.950178956327      -9.944844429050655E-081 -8.144724173482901E-081
   362.743059961708       3.965514039536477E-082  6.447771291218406E-081
   363.535940967089       2.125209315549328E-081 -2.342719071421630E-081
   364.328821972470      -1.498091361658804E-081  8.111959544186462E-083
   365.121702977850       5.181895376673091E-082  4.504622129870642E-082
   365.914583983231      -2.630252689226531E-083 -3.014614709017880E-082
   366.707464988612      -8.163691782682553E-083  9.918684322465054E-083
   367.500345993993       5.244271609601168E-083 -4.743258563459286E-084
   368.293226999373      -1.565512296994593E-083 -1.389884953536610E-083
   369.086108004754      -2.084932788507175E-086  8.124125966298256E-084
   369.878989010135       2.402725252031900E-084 -1.961788391729313E-084
   370.671870015516      -1.142624953554874E-084 -2.773290534463471E-085
   371.464751020897       1.614451337445459E-085  4.165852138927782E-085
   372.257632026277       1.014905283841136E-085 -1.386568074911207E-085
   373.050513031658      -6.718714979333161E-086 -6.561011891752497E-087
   373.843394037039       1.084868068767812E-086  2.506161269801739E-086
   374.636275042420       7.172724310503950E-087 -8.922657447332758E-087
   375.429156047801      -4.891719587001728E-087 -1.008400167541736E-087
   376.222037053181       6.044987584122530E-088  2.190029200991872E-087
   377.014918058562       7.870353184309246E-088 -7.348457142488795E-088
   377.807799063943      -5.032964509157839E-088 -1.660955066324927E-088
   378.600680069324       5.619165558626883E-089  2.634885922369568E-088
   379.393561074704       1.003656518378135E-088 -9.813155905989562E-089
   380.186442080085      -7.290750962553762E-089 -1.419998631177193E-089
   380.979323085466       1.736451474872550E-089  3.550164860566477E-089
   381.772204090847       8.637448427365433E-090 -1.905959160548272E-089
   382.565085096228      -1.040968144453351E-089  3.284871068230537E-090
   383.357966101608       4.884229097236720E-090  2.654940935144773E-090
   384.150847106989      -8.071744257012851E-091 -2.621721319852380E-090
   384.943728112370      -5.725544135423951E-091  1.171666021649284E-090
   385.736609117751       5.539013470961960E-091 -2.178271176841473E-091
   386.529490123131      -2.433499049094962E-091 -9.302725019452900E-092
   387.322371128512       4.840308608010828E-092  9.823593000225512E-092
   388.115252133893       1.341772895477920E-092 -4.229507789900279E-092
   388.908133139274      -1.551239904015344E-092  7.948464210193700E-093
   389.701014144655       6.287608267403588E-093  2.280223299963798E-093
   390.493895150035      -9.050468531967935E-094 -2.361852079290618E-093
   391.286776155416      -4.799232276785802E-094  8.219901051342563E-094
   392.079657160797       3.577700239885322E-094 -3.989619765119225E-095
   392.872538166178      -9.074406885190426E-095 -1.041501207424004E-094
   393.665419171558      -1.482870597763486E-095  5.217554791305857E-095
   394.458300176939       2.109878463216744E-095 -6.048322357747080E-096
   395.251181182320      -6.745339913763035E-096 -6.253227187550371E-096
   396.044062187701      -8.161341458123625E-097  3.918231892224304E-096
   396.836943193082       1.701246528175948E-096 -6.126428189235819E-097
   397.629824198462      -6.708676331087972E-097 -5.151278163898671E-097
   398.422705203843      -2.264104009428456E-098  4.068082312864198E-097
   399.215586209224       1.676707821186193E-097 -1.100102407651765E-097
   400.008467214605      -9.508760513997688E-098 -3.054865743607033E-098
   400.801348219986       2.006405487782693E-098  4.554929772847810E-098
   401.594229225366       9.166453909638426E-099 -2.275052283208136E-098
   402.387110230747      -1.071383539404259E-098  4.973139836523770E-099
   403.179991236128       5.284531779597743E-099  1.514677384950309E-099
   403.972872241509      -1.401949376473329E-099 -2.007974222922485E-099
   404.765753246890      -5.300661825941848E-101  1.035041574386239E-099
   405.558634252270       2.677611110072877E-100 -3.165143650336085E-100
   406.351515257651      -1.528378856581199E-100  3.331131094623561E-101
   407.144396263032       5.003846345792740E-101  2.451642146711960E-101
   407.937277268413      -7.608050087275246E-102 -1.720651780796753E-101
   408.730158273793      -1.922881852080862E-102  5.748573696405896E-102
   409.523039279174       1.686484608073917E-102 -8.333676553042182E-103
   410.315920284555      -5.265468124697395E-103 -2.148839154619360E-103
   411.108801289936       4.602843280095059E-104  1.632816677434538E-103
   411.901682295317       3.252193035914574E-104 -3.878833912716991E-104
   412.694563300697      -1.511614180390495E-104 -2.473067347072869E-105
   413.487444306078       1.475766143586166E-105  4.528993935711668E-105
   414.280325311459       1.136951821568886E-105 -1.040021372353350E-105
   415.073206316840      -4.727041283570213E-106 -2.257599788852321E-106
   415.866087322220      -1.714593678290431E-107  1.878779815191418E-106
   416.658968327601       7.015157187333106E-107 -1.769539244716120E-107
   417.451849332982      -1.629806252840985E-107 -2.471683277113514E-107
   418.244730338363      -7.710676154878705E-108  1.035952666618820E-107
   419.037611343744       5.768427422178545E-108  1.570998069568593E-108
   419.830492349124      -4.257557409233840E-109 -2.884876457382591E-108
   420.623373354505      -1.217955561010228E-108  8.475530692470167E-109
   421.416254359886       7.026314569519203E-109  3.345591832729556E-109
   422.209135365267      -5.632166963893498E-110 -4.111978320557697E-109
   423.002016370648      -1.576772665784389E-109  1.561412187100406E-109
   423.794897376028       1.168644704465523E-109  9.783732348155755E-111
   424.587778381409      -3.805691219504347E-110 -4.696689019869569E-110
   425.380659386790      -2.252485734930222E-111  2.995251248304679E-110
   426.173540392171       1.012995743980654E-110 -1.002233143780093E-110
   426.966421397551      -6.382060178825875E-111  5.959059747038213E-112
   427.759302402932       2.280588439208983E-111  1.487214213242341E-111
   428.552183408313      -3.482195843134378E-112 -1.033938912349208E-111
   429.345064413694      -1.428983659785602E-112  3.877500504024194E-112
   430.137945419075       1.291506746811508E-112 -7.362611787896771E-113
   430.930826424455      -5.000194553011757E-113 -1.082906105244585E-113
   431.723707429836       9.402204745464898E-114  1.416086090187194E-113
   432.516588435217       1.261775064208484E-114 -5.363966489861775E-114
   433.309469440598      -1.568976407872539E-114  8.042375570193839E-115
   434.102350445978       5.092439377045142E-115  2.409026927441486E-115
   434.895231451359      -3.006829604037575E-116 -1.793220373116851E-115
   435.688112456740      -4.458045412991875E-116  4.001807009153090E-116
   436.480993462121       1.936676913761575E-116  6.195208134778587E-117
   437.273874467502      -1.374399786433924E-117 -7.028482428182592E-117
   438.066755472882      -2.047110750309307E-117  1.652065246550826E-117
   438.859636478263       9.258513993139724E-118  4.042778012997146E-118
   439.652517483644      -2.992235572524135E-119 -4.045107548503480E-118
   440.445398489025      -1.424139170956057E-118  9.243892504219012E-119
   441.238279494405       6.581985178775593E-119  3.317572788251672E-119
   442.031160499786      -3.158296910969209E-120 -3.279031435894701E-119
   442.824041505167      -1.148645855472473E-119  9.675371992765617E-120
   443.616922510548       6.743172770569963E-120  1.519420107550945E-120
   444.409803515929      -1.450298294526705E-120 -2.826160200159370E-120
   445.202684521309      -5.017613014745117E-121  1.351543353655251E-120
   445.995565526690       5.819874688428597E-121 -2.651198693731782E-121
   446.788446532071      -2.604204285450064E-121 -8.763964822502022E-122
   447.581327537452       5.659315680904924E-122  9.837776330496415E-122
   448.374208542832       8.175729942910406E-123 -4.407397510152169E-122
   449.167089548213      -1.301066732249191E-122  1.074898197652091E-122
   449.959970553594       6.052003791499811E-123  5.017668494845915E-125
   450.752851558975      -1.557768329425717E-123 -1.364139596976774E-123
   451.545732564356       8.048544337616902E-125  6.735950053703611E-124
   452.338613569736       1.284888145968932E-124 -1.711868742285095E-124
   453.131494575117      -6.498675774091321E-125  8.300030192143485E-126
   453.924375580498       1.481264510897409E-125  1.286570880483592E-125
   454.717256585879       1.865211985084722E-127 -5.799971594285051E-126
   455.510137591260      -1.408842433716985E-126  9.723497559111460E-127
   456.303018596640       4.729984719606904E-127  1.869172343283328E-127
   457.095899602021      -2.614530275850062E-128 -1.513818862399707E-127
   457.888780607402      -3.699041259043800E-128  2.992474681472517E-128
   458.681661612783       1.393958940675348E-128  6.110782257758367E-129
   459.474542618163      -2.044726209674753E-130 -5.053614941875640E-129
   460.267423623544      -1.555532777433391E-129  8.078717076437788E-130
   461.060304628925       5.019071335815252E-130  3.885534848221950E-130
   461.853185634306       5.282002152702624E-131 -2.342591615315544E-130
   462.646066639687      -9.225214680531079E-131  2.145387764595959E-131
   463.438947645067       2.500041951664834E-131  2.965301216672398E-131
   464.231828650448       5.919121846748480E-132 -1.529082723996095E-131
   465.024709655829      -7.007383995572481E-132  1.177243773537585E-132
   465.817590661210       2.114108072701328E-132  2.310191229473350E-132
   466.610471666591       2.954433085769565E-133 -1.359956444383428E-132
   467.403352671971      -5.585772715690748E-133  2.652381855968061E-133
   468.196233677352       2.476231370141027E-133  1.136150930592106E-133
   468.989114682733      -3.538356019260802E-134 -1.127146493719906E-133
   469.781995688114      -2.399743914438042E-134  4.396496276157346E-134
   470.574876693494       1.976446721167728E-134 -5.994375953321685E-135
   471.367757698875      -7.387441419579057E-135 -3.672809898888670E-135
   472.160638704256       1.144530802321885E-135  2.971773235896827E-135
   472.953519709637       4.258318694703311E-136 -1.107642000968452E-135
   473.746400715018      -3.808724271846240E-136  1.932151272195231E-136
   474.539281720398       1.432960346284108E-136  3.978642511237420E-137
   475.332162725779      -2.618384553202754E-137 -4.289873173580209E-137
   476.125043731160      -3.617891182857415E-138  1.615041410413202E-137
   476.917924736541       4.516289889143851E-138 -2.843864666934246E-138
   477.710805741921      -1.642204937468603E-138 -4.175650521541530E-139
   478.503686747302       2.493977386313052E-139  4.707039628383906E-139
   479.296567752683       6.041518291923719E-140 -1.554368195449694E-139
   480.089448758064      -4.961023415527017E-140  1.645672729931935E-140
   480.882329763445       1.379674275089146E-140  9.012017595384861E-141
   481.675210768825      -4.080185016870286E-142 -5.230689733325212E-141
   482.468091774206      -1.267851413607215E-141  1.119639825141541E-141
   483.260972779587       5.411595786399591E-142  1.140844512442492E-142
   484.053853784968      -7.665412190494006E-143 -1.666571612335758E-142
   484.846734790349      -2.937206383637356E-143  5.421022472357900E-143
   485.639615795729       2.069780216902543E-143 -3.244819007037575E-144
   486.432496801110      -5.245614945544709E-144 -4.891574938424534E-144
   487.225377806491      -1.723435500936569E-145  2.457194130234894E-144
   488.018258811872       6.833654901786852E-145 -4.959997998366783E-145
   488.811139817252      -2.800026798320007E-145 -6.473893268065933E-146
   489.604020822633       4.677492116481133E-146  8.451034108124359E-146
   490.396901828014       9.965269338049643E-147 -3.029834515782185E-146
   491.189782833395      -9.314222326260100E-147  4.397837890258033E-147
   491.982663838776       3.028916217411037E-147  1.153660338765495E-147
   492.775544844156      -3.889957265162664E-148 -9.116478641332590E-148
   493.568425849537      -1.158478598051303E-148  2.703975834676874E-148
   494.361306854918       7.968205320025383E-149 -2.882800482879759E-149
   495.154187860299      -2.094729879541218E-149 -1.114115233750294E-149
   495.947068865680       1.432570625678969E-150  6.315847684641396E-150
   496.739949871060       1.066773353548151E-150 -1.362950927497953E-150
   497.532830876441      -4.553201456941603E-151 -5.873807085988840E-153
   498.325711881822       6.730143522113426E-152  9.777130037788924E-152
   499.118592887203       1.171147064151292E-152 -2.856428085273299E-152
   499.911473892583      -7.977224637343409E-153  1.229307841036191E-153
   500.704354897964       1.309953014296713E-153  1.688259934834536E-153
   501.497235903345       2.433118658387717E-154 -5.230068510441271E-154
   502.290116908726      -1.597230570476443E-154  2.179932854369006E-156
   503.082997914107       1.954250231122454E-155  4.120080078053376E-155
   503.875878919487       8.784118118593301E-156 -1.020450411872655E-155
   504.668759924868      -3.938001617219622E-156 -1.205352245978840E-156
   505.461640930249       1.591602336125024E-157  1.294395566375158E-156
   506.254521935630       3.620184353716791E-157 -2.252484722325820E-157
   507.047402941010      -1.215959280171617E-157 -7.560769160471371E-158
   507.840283946391      -3.267438407140527E-159  4.891651330217675E-158
   508.633164951772       1.517694972607299E-158 -7.543940877378966E-159
   509.426045957153      -5.019659268854735E-159 -2.995448638349510E-159
   510.218926962534       1.585968415492656E-160  1.976591401270729E-159
   511.011807967914       4.779732877892003E-160 -4.414756506006817E-160
   511.804688973295      -2.011709117531897E-160 -2.285978120956273E-161
   512.597569978676       3.488011037899633E-161  4.670098171671751E-161
   513.390450984057       2.057793499786484E-162 -1.486738956305537E-161
   514.183331989437      -2.537149653948417E-162  2.068140567701182E-162
   514.976212994818       5.401592442695179E-163  2.410984666481218E-164
   515.769094000199      -3.473329776865593E-164 -3.314973229341623E-164
   516.561975005580       6.660455507475568E-192  7.214572944032205E-191
