  0.395228146413051       4.388020892597379E-004 -2.658609428996930E-002
   1.18568443923915      -1.432574048313874E-003  2.482615708477553E-002
   1.97614073206525       2.668278175111284E-003 -2.168465143277816E-002
   2.76659702489135      -4.045407425627053E-003  1.773021280684484E-002
   3.55705331771746       5.294781313266050E-003 -1.350543447083967E-002
   4.34750961054356      -6.129287638068138E-003  9.417361209864351E-003
   5.13796590336966       6.364372642502906E-003 -5.737447957511839E-003
   5.92842219619576      -5.959559407896205E-003  2.641904247853024E-003
   6.71887848902186       5.000838534915036E-003 -2.414100841427610E-004
   7.50933478184796      -3.658946280666327E-003 -1.410023690031070E-003
   8.29979107467407       2.145339140055467E-003  2.316832301719429E-003
   9.09024736750017      -6.741412948666447E-004 -2.543032250520942E-003
   9.88070366032627      -5.678554629622078E-004  2.206876535916199E-003
   10.6711599531524       1.442608056340122E-003 -1.468016097861141E-003
   11.4616162459785      -1.873306800811470E-003  5.089121631020055E-004
   12.2520725388046       1.847857071509190E-003  4.865565812335899E-004
   13.0425288316307      -1.413913962526193E-003 -1.354093450797079E-003
   13.8329851244568       6.668407640909007E-004  1.966716254952377E-003
   14.6234414172829       2.672561416424370E-004 -2.247038420737802E-003
   15.4138977101090      -1.250694248324570E-003  2.172783778000380E-003
   16.2043540029351       2.152661708136599E-003 -1.775076330500848E-003
   16.9948102957612      -2.864368740601961E-003  1.129752858982013E-003
   17.7852665885873       3.309367727743917E-003 -3.425932075330582E-004
   18.5757228814134      -3.449034134133869E-003 -4.696574932068626E-004
   19.3661791742395       3.284299000822625E-003  1.199065446539381E-003
   20.1566354670656      -2.854264306840678E-003 -1.762468649952630E-003
   20.9470917598917       2.230680775865134E-003  2.109945279439334E-003
   21.7375480527178      -1.506829491465888E-003 -2.225531334942537E-003
   22.5280043455439       7.816749098543225E-004  2.123115162994754E-003
   23.3184606383700      -1.432192052590830E-004 -1.840589058310143E-003
   24.1089169311961      -3.444003548246740E-004  1.433252464752097E-003
   24.8993732240222       6.476098142352708E-004 -9.660536597821802E-004
   25.6898295168483      -7.639313769754314E-004  5.046635603608117E-004
   26.4802858096744       7.177098138643094E-004 -1.064646664152574E-004
   27.2707421025005      -5.526528255993063E-004 -1.869364098069956E-004
   28.0611983953266       3.227051706184574E-004  3.543315507671043E-004
   28.8516546881527      -8.266655935488199E-005 -3.960140301669434E-004
   29.6421109809788      -1.201615609587594E-004  3.314414422274793E-004
   30.4325672738049       2.522439216039332E-004 -1.941324836011848E-004
   31.2230235666310      -2.972976714072813E-004  2.485929459020146E-005
   32.0134798594571       2.567507934373726E-004  1.356352031136535E-004
   32.8039361522832      -1.473925202893305E-004 -2.532076231956875E-004
   33.5943924451093      -3.159798367784685E-006  3.052059241334654E-004
   34.3848487379354       1.622708107190736E-004 -2.830666851469949E-004
   35.1753050307615      -2.983441161357309E-004  1.924162288077489E-004
   35.9657613235876       3.861391655664522E-004 -5.088219773520349E-005
   36.7562176164137      -4.105547988551269E-004 -1.158407352705146E-004
   37.5466739092398       3.683944923021269E-004  2.789082887851625E-004
   38.3371302020659      -2.680007699778053E-004 -4.113813740624098E-004
   39.1275864948920       1.270161498280519E-004  4.926145831315600E-004
   39.9180427877181       3.118104129049987E-005 -5.113191466387407E-004
   40.7084990805442      -1.816651619445141E-004  4.668742124074913E-004
   41.4989553733703       3.020680512581347E-004 -3.687691513416342E-004
   42.2894116661964      -3.759857348489293E-004  2.343982250659372E-004
   43.0798679590225       3.952205301018842E-004 -8.571254951753135E-005
   43.8703242518486      -3.605814125626752E-004 -5.461125040897395E-005
   44.6607805446747       2.811954202084990E-004  1.668171201606409E-004
   45.4512368375008      -1.725267630199498E-004 -2.369650906900422E-004
   46.2416931303269       5.350726112016178E-005  2.586839488963541E-004
   47.0321494231530       5.669369909876314E-005 -2.335985372337967E-004
   47.8226057159791      -1.417089125265006E-004  1.704676994039038E-004
   48.6130620088052       1.903452520100056E-004 -8.326675796417425E-005
   49.4035183016313      -1.979563373300907E-004 -1.140310121050557E-005
   50.1939745944574       1.666723903832495E-004  9.711822093180520E-005
   50.9844308872835      -1.045391094930772E-004 -1.601894451655870E-004
   51.7748871801096       2.378864826631527E-005  1.915881943419134E-004
   52.5653434729357       6.141240939626022E-005 -1.879879207149333E-004
   53.3557997657618      -1.373363136231983E-004  1.518282782749572E-004
   54.1462560585879       1.927991028014648E-004 -9.047177940050546E-005
   54.9367123514140      -2.206822516479572E-004  1.465972939997665E-005
   55.7271686442401       2.186771421697417E-004  6.343390184682817E-005
   56.5176249370662      -1.892036798408176E-004 -1.322145109945405E-004
   57.3080812298923       1.385965964748473E-004  1.824240913968005E-004
   58.0985375227184      -7.576450381118056E-005 -2.083836028685956E-004
   58.8889938155446       1.058731917841293E-005  2.085574762693800E-004
   59.6794501083707       4.767606543349201E-005 -1.854002292280870E-004
   60.4699064011968      -9.173234075458740E-005  1.445744582906954E-004
   61.2603626940229       1.171709069770704E-004 -9.373490951451164E-005
   62.0508189868490      -1.228477835329185E-004  4.112846551057785E-005
   62.8412752796751       1.107181968549175E-004  5.741357557160361E-006
   63.6317315725012      -8.519144057591897E-005 -4.118082416177762E-005
   64.4221878653273       5.215813768387701E-005  6.196678839140058E-005
   65.2126441581534      -1.788368428961523E-005 -6.754353890370438E-005
   66.0031004509795      -1.203454208285132E-005  5.977544644200785E-005
   66.7935567438056       3.348051681295444E-005 -4.234334522949432E-005
   67.5840130366317      -4.429462530266903E-005  1.992108027865590E-005
   68.3744693294578       4.437039924316676E-005  2.709351877404862E-006
   69.1649256222839      -3.540064290334789E-005 -2.145200812566030E-005
   69.9553819151100       2.035628740275939E-005  3.347975614715567E-005
   70.7458382079361      -2.816865426897113E-006 -3.753329717506489E-005
   71.5362945007622      -1.371687076146600E-005  3.391990249807343E-005
   72.3267507935883       2.640944050645474E-005 -2.424796238146006E-005
   73.1172070864144      -3.348825476798610E-005  1.097424509104590E-005
   73.9076633792405       3.440694329495065E-005  3.136107903389847E-006
   74.6981196720666      -2.977480888602294E-005 -1.553347586707600E-005
   75.4885759648927       2.109366253369209E-005  2.430297358652503E-005
   76.2790322577188      -1.037237831803389E-005 -2.841874750838975E-005
   77.0694885505449      -2.972919390312862E-007  2.780862170780376E-005
   77.8599448433710       9.123575694700120E-006 -2.324039079515395E-005
   78.6504011361971      -1.489360499592072E-005  1.607158317273802E-005
   79.4408574290232       1.711206976281297E-005 -7.924657470731013E-006
   80.2313137218493      -1.599240677383393E-005  3.562731662099064E-007
   81.0217700146754       1.232021629212155E-005  5.417782160445106E-006
   81.8122263075015      -7.229220069795073E-006 -8.698355938983042E-006
   82.6026826003276       1.941529223830440E-006  9.359574331712786E-006
   83.3931388931537       2.475142139555836E-006 -7.790989918346066E-006
   84.1835951859798      -5.289766166941534E-006  4.750408186956199E-006
   84.9740514788059       6.202619169633944E-006 -1.166099463009298E-006
   85.7645077716320      -5.344803236555110E-006 -2.068003736385869E-006
   86.5549640644581       3.194209187732076E-006  4.264256764425544E-006
   87.3454203572842      -4.341103976044361E-007 -5.051329712803616E-006
   88.1358766501103      -2.211389874799011E-006  4.408365542846311E-006
   88.9263329429364       4.130232653774156E-006 -2.625479239261440E-006
   89.7167892357625      -4.934929373581231E-006  2.068149685691572E-007
   90.5072455285886       4.517099734894324E-006  2.258221545737401E-006
   91.2977018214147      -3.039659543790979E-006 -4.226481617536120E-006
   92.0881581142408       8.750257227770630E-007  5.308823284278364E-006
   92.8786144070669       1.492536337974097E-006 -5.335045704723904E-006
   93.6690706998930      -3.577118463431684E-006  4.367429139604213E-006
   94.4595269927191       4.990567873898077E-006 -2.665446110011018E-006
   95.2499832855452      -5.512252040396245E-006  6.137843042864062E-007
   96.0404395783713       5.118107837063508E-006  1.367953826039413E-006
   96.8308958711974      -3.967024731827433E-006 -2.913635360495867E-006
   97.6213521640235       2.351298782201695E-006  3.779304340006218E-006
   98.4118084568496      -6.245569735663433E-007 -3.880293797012504E-006
   99.2022647496757      -8.759880668424755E-007  3.292396788901302E-006
   99.9927210425018       1.896399627321349E-006 -2.220338515758548E-006
   100.783177335328      -2.309221047220492E-006  9.429937521765686E-007
   101.573633628154       2.126371267876184E-006  2.513791261552310E-007
   102.364089920980      -1.481976896711968E-006 -1.125721054953117E-006
   103.154546213806       5.915382577853472E-007  1.538453201127896E-006
   103.945002506632       3.019173129889349E-007 -1.463723694446345E-006
   104.735458799458      -9.823377251098181E-007  9.855268717226875E-007
   105.525915092285       1.304405781801703E-006 -2.692106188150130E-007
   106.316371385111      -1.218365671909753E-006 -4.817016358874166E-007
   107.106827677937       7.723495642999235E-007  1.073050529200294E-006
   107.897283970763      -9.361873015497414E-008 -1.361565184461848E-006
   108.687740263589      -6.455810024013421E-007  1.282108042152659E-006
   109.478196556415       1.269090238236857E-006 -8.560438450037382E-007
   110.268652849241      -1.635592196054853E-006  1.804770920282640E-007
   111.059109142067       1.667015451212674E-006  5.978419462664846E-007
   111.849565434893      -1.361328327636669E-006 -1.317202742323581E-006
   112.640021727719       7.881400857170402E-007  1.836190426665290E-006
   113.430478020546      -6.926681100856259E-008 -2.062021742211213E-006
   114.220934313372      -6.505247250937011E-007  1.966553283915446E-006
   115.011390606198       1.235598656387118E-006 -1.587586857028028E-006
   115.801846899024      -1.587189450198581E-006  1.016321473565915E-006
   116.592303191850       1.661091727265002E-006 -3.745525496586813E-007
   117.382759484676      -1.472285952130181E-006 -2.129287031426451E-007
   118.173215777502       1.086635453659180E-006  6.445701480644248E-007
   118.963672070328      -6.025520611311163E-007 -8.613402432246139E-007
   119.754128363154       1.273490425104174E-007  8.552901338689585E-007
   120.544584655980       2.463036899183819E-007 -6.662750524026875E-007
   121.335040948807      -4.588198061271182E-007  3.684665925919552E-007
   122.125497241633       4.934262519797240E-007 -5.044876935291072E-008
   122.915953534459      -3.756703541569298E-007 -2.061813343511490E-007
   123.706409827285       1.635215445480101E-007  3.448313587386964E-007
   124.496866120111       6.908197209175083E-008 -3.447732220486684E-007
   125.287322412937      -2.511020231487161E-007  2.229137957614972E-007
   126.077778705763       3.312514320120331E-007 -2.669690849848524E-008
   126.868234998589      -2.891067682870367E-007 -1.796696563409016E-007
   127.658691291415       1.382684089151223E-007  3.320939440321038E-007
   128.449147584241       7.872462343130089E-008 -3.825142014561841E-007
   129.239603877068      -3.021281740705493E-007  3.102107347642708E-007
   130.030060169894       4.703396045230141E-007 -1.261109950936679E-007
   130.820516462720      -5.351331597158946E-007 -1.305973922992996E-007
   131.610972755546       4.732377091541870E-007  4.024335637311103E-007
   132.401429048372      -2.916782960302888E-007 -6.275940327169509E-007
   133.191885341198       2.581736057426460E-008  7.545424355782748E-007
   133.982341634024       2.692533393345459E-007 -7.538383540061882E-007
   134.772797926850      -5.317828460246377E-007  6.245930542401954E-007
   135.563254219676       7.077014995505141E-007 -3.942409165864680E-007
   136.353710512502      -7.628223331201663E-007  1.118331908898397E-007
   137.144166805329       6.901195728262092E-007  1.635062592605911E-007
   137.934623098155      -5.105691815569063E-007 -3.762403984400210E-007
   138.725079390981       2.675728103675672E-007  4.869838559250847E-007
   139.515535683807      -1.641770495966937E-008 -4.810380516040703E-007
   140.305991976633      -1.887184498544324E-007  3.709597401971242E-007
   141.096448269459       3.072080502695103E-007 -1.926802738201107E-007
   141.886904562285      -3.210089156306941E-007 -3.781019376962718E-009
   142.677360855111       2.382456922583518E-007  1.667308999234545E-007
   143.467817147937      -9.056121919745094E-008 -2.553849677402208E-007
   144.258273440764      -7.508919885275579E-008  2.496664902388864E-007
   145.048729733590       2.082406478218073E-007 -1.549457725881570E-007
   145.839186026416      -2.675301570847443E-007  6.330500205963464E-010
   146.629642319242       2.311453206837391E-007  1.670334344397529E-007
   147.420098612068      -1.026381872694902E-007 -2.963176780819651E-007
   148.210554904894      -8.930132557707964E-008  3.427914711217905E-007
   149.001011197720       2.971291877963846E-007 -2.806206761524611E-007
   149.791467490546      -4.654068527961043E-007  1.096715632804219E-007
   150.581923783372       5.439622847069279E-007  1.432783521880494E-007
   151.372380076198      -5.002341966658259E-007 -4.295983843118003E-007
   152.162836369024       3.279104987967292E-007  6.890742734699437E-007
   152.953292661851      -4.975659468472476E-008 -8.631439052089927E-007
   153.743748954677      -2.861830257845058E-007  9.081774041018076E-007
   154.534205247503       6.163035804515223E-007 -8.058472360139668E-007
   155.324661540329      -8.749702313962884E-007  5.682207539476578E-007
   156.115117833155       1.008837152043217E-006 -2.362844064213886E-007
   156.905574125981      -9.887522807378958E-007 -1.280018600572380E-007
   157.696030418807       8.166036981922695E-007  4.545606051335894E-007
   158.486486711633      -5.255662288769137E-007 -6.802074904013072E-007
   159.276943004459       1.735942062579796E-007  7.624749458273011E-007
   160.067399297286       1.685685141425350E-007 -6.891176695867896E-007
   160.857855590112      -4.323841163018539E-007  4.811144062382247E-007
   161.648311882938       5.663228202531308E-007 -1.884141866687899E-007
   162.438768175764      -5.472299514160502E-007 -1.207323167302879E-007
   163.229224468590       3.856967220789455E-007  3.746026578993878E-007
   164.019680761416      -1.241410518191570E-007 -5.138031317140886E-007
   164.810137054242      -1.721152087034461E-007  5.045924437412011E-007
   165.600593347068       4.289416966475149E-007 -3.467696502431726E-007
   166.391049639894      -5.796694494711044E-007  7.430811939435174E-008
   167.181505932720       5.800095334136388E-007  2.515272656933486E-007
   167.971962225547      -4.183320562766913E-007 -5.552039869883627E-007
   168.762418518373       1.189798274783823E-007  7.633448705461266E-007
   169.552874811199       2.622209303167547E-007 -8.210150557650568E-007
   170.343331104025      -6.493960830492279E-007  7.042991650441192E-007
   171.133787396851       9.626197889407583E-007 -4.263332689766825E-007
   171.924243689677      -1.135063495636951E-006  3.533133093677820E-008
