     4.00000     0.26390249E-03
     4.00400     0.27251348E-03
     4.00800     0.28113265E-03
     4.01200     0.28976029E-03
     4.01600     0.29839666E-03
     4.02000     0.30704203E-03
     4.02400     0.31569669E-03
     4.02800     0.32436091E-03
     4.03200     0.33303496E-03
     4.03600     0.34171911E-03
     4.04000     0.35041366E-03
     4.04400     0.35911887E-03
     4.04800     0.36783503E-03
     4.05200     0.37656242E-03
     4.05600     0.38530131E-03
     4.06000     0.39405199E-03
     4.06400     0.40281474E-03
     4.06800     0.41158985E-03
     4.07200     0.42037759E-03
     4.07600     0.42917827E-03
     4.08000     0.43799215E-03
     4.08400     0.44681953E-03
     4.08800     0.45566070E-03
     4.09200     0.46451595E-03
     4.09600     0.47338557E-03
     4.10000     0.48226985E-03
     4.10400     0.49116908E-03
     4.10800     0.50008356E-03
     4.11200     0.50901358E-03
     4.11600     0.51795944E-03
     4.12000     0.52692144E-03
     4.12400     0.53589987E-03
     4.12800     0.54489505E-03
     4.13200     0.55390726E-03
     4.13600     0.56293681E-03
     4.14000     0.57198401E-03
     4.14400     0.58104916E-03
     4.14800     0.59013257E-03
     4.15200     0.59923455E-03
     4.15600     0.60835541E-03
     4.16000     0.61749546E-03
     4.16400     0.62665501E-03
     4.16800     0.63583438E-03
     4.17200     0.64503388E-03
     4.17600     0.65425384E-03
     4.18000     0.66349457E-03
     4.18400     0.67275639E-03
     4.18800     0.68203962E-03
     4.19200     0.69134460E-03
     4.19600     0.70067165E-03
     4.20000     0.71002109E-03
     4.20400     0.71939326E-03
     4.20800     0.72878849E-03
     4.21200     0.73820711E-03
     4.21600     0.74764945E-03
     4.22000     0.75711586E-03
     4.22400     0.76660668E-03
     4.22800     0.77612225E-03
     4.23200     0.78566290E-03
     4.23600     0.79522899E-03
     4.24000     0.80482087E-03
     4.24400     0.81443888E-03
     4.24800     0.82408338E-03
     4.25200     0.83375472E-03
     4.25600     0.84345326E-03
     4.26000     0.85317935E-03
     4.26400     0.86293337E-03
     4.26800     0.87271566E-03
     4.27200     0.88252661E-03
     4.27600     0.89236657E-03
     4.28000     0.90223592E-03
     4.28400     0.91213503E-03
     4.28800     0.92206428E-03
     4.29200     0.93202404E-03
     4.29600     0.94201470E-03
     4.30000     0.95203664E-03
     4.30400     0.96209025E-03
     4.30800     0.97217592E-03
     4.31200     0.98229403E-03
     4.31600     0.99244499E-03
     4.32000     0.10026292E-02
     4.32400     0.10128470E-02
     4.32800     0.10230989E-02
     4.33200     0.10333853E-02
     4.33600     0.10437065E-02
     4.34000     0.10540629E-02
     4.34400     0.10644551E-02
     4.34800     0.10748834E-02
     4.35200     0.10853482E-02
     4.35600     0.10958499E-02
     4.36000     0.11063891E-02
     4.36400     0.11169660E-02
     4.36800     0.11275812E-02
     4.37200     0.11382351E-02
     4.37600     0.11489282E-02
     4.38000     0.11596608E-02
     4.38400     0.11704334E-02
     4.38800     0.11812465E-02
     4.39200     0.11921006E-02
     4.39600     0.12029961E-02
     4.40000     0.12139334E-02
     4.40400     0.12249130E-02
     4.40800     0.12359355E-02
     4.41200     0.12470012E-02
     4.41600     0.12581107E-02
     4.42000     0.12692644E-02
     4.42400     0.12804629E-02
     4.42800     0.12917065E-02
     4.43200     0.13029959E-02
     4.43600     0.13143316E-02
     4.44000     0.13257139E-02
     4.44400     0.13371435E-02
     4.44800     0.13486208E-02
     4.45200     0.13601464E-02
     4.45600     0.13717208E-02
     4.46000     0.13833445E-02
     4.46400     0.13950180E-02
     4.46800     0.14067420E-02
     4.47200     0.14185168E-02
     4.47600     0.14303432E-02
     4.48000     0.14422216E-02
     4.48400     0.14541525E-02
     4.48800     0.14661366E-02
     4.49200     0.14781745E-02
     4.49600     0.14902666E-02
     4.50000     0.15024136E-02
     4.50400     0.15146160E-02
     4.50800     0.15268745E-02
     4.51200     0.15391896E-02
     4.51600     0.15515620E-02
     4.52000     0.15639922E-02
     4.52400     0.15764809E-02
     4.52800     0.15890286E-02
     4.53200     0.16016360E-02
     4.53600     0.16143038E-02
     4.54000     0.16270325E-02
     4.54400     0.16398229E-02
     4.54800     0.16526755E-02
     4.55200     0.16655910E-02
     4.55600     0.16785701E-02
     4.56000     0.16916134E-02
     4.56400     0.17047217E-02
     4.56800     0.17178955E-02
     4.57200     0.17311356E-02
     4.57600     0.17444428E-02
     4.58000     0.17578176E-02
     4.58400     0.17712608E-02
     4.58800     0.17847731E-02
     4.59200     0.17983553E-02
     4.59600     0.18120081E-02
     4.60000     0.18257321E-02
     4.60400     0.18395283E-02
     4.60800     0.18533972E-02
     4.61200     0.18673397E-02
     4.61600     0.18813566E-02
     4.62000     0.18954487E-02
     4.62400     0.19096166E-02
     4.62800     0.19238613E-02
     4.63200     0.19381835E-02
     4.63600     0.19525840E-02
     4.64000     0.19670637E-02
     4.64400     0.19816234E-02
     4.64800     0.19962640E-02
     4.65200     0.20109862E-02
     4.65600     0.20257910E-02
     4.66000     0.20406792E-02
     4.66400     0.20556516E-02
     4.66800     0.20707093E-02
     4.67200     0.20858531E-02
     4.67600     0.21010838E-02
     4.68000     0.21164024E-02
     4.68400     0.21318099E-02
     4.68800     0.21473072E-02
     4.69200     0.21628952E-02
     4.69600     0.21785749E-02
     4.70000     0.21943472E-02
     4.70400     0.22102132E-02
     4.70800     0.22261738E-02
     4.71200     0.22422300E-02
     4.71600     0.22583830E-02
     4.72000     0.22746336E-02
     4.72400     0.22909829E-02
     4.72800     0.23074320E-02
     4.73200     0.23239820E-02
     4.73600     0.23406339E-02
     4.74000     0.23573888E-02
     4.74400     0.23742479E-02
     4.74800     0.23912121E-02
     4.75200     0.24082828E-02
     4.75600     0.24254610E-02
     4.76000     0.24427478E-02
     4.76400     0.24601445E-02
     4.76800     0.24776522E-02
     4.77200     0.24952722E-02
     4.77600     0.25130056E-02
     4.78000     0.25308537E-02
     4.78400     0.25488177E-02
     4.78800     0.25668989E-02
     4.79200     0.25850985E-02
     4.79600     0.26034179E-02
     4.80000     0.26218584E-02
     4.80400     0.26404212E-02
     4.80800     0.26591078E-02
     4.81200     0.26779194E-02
     4.81600     0.26968575E-02
     4.82000     0.27159235E-02
     4.82400     0.27351187E-02
     4.82800     0.27544446E-02
     4.83200     0.27739026E-02
     4.83600     0.27934942E-02
     4.84000     0.28132209E-02
     4.84400     0.28330842E-02
     4.84800     0.28530856E-02
     4.85200     0.28732267E-02
     4.85600     0.28935089E-02
     4.86000     0.29139340E-02
     4.86400     0.29345034E-02
     4.86800     0.29552189E-02
     4.87200     0.29760820E-02
     4.87600     0.29970944E-02
     4.88000     0.30182579E-02
     4.88400     0.30395741E-02
     4.88800     0.30610448E-02
     4.89200     0.30826717E-02
     4.89600     0.31044566E-02
     4.90000     0.31264013E-02
     4.90400     0.31485077E-02
     4.90800     0.31707776E-02
     4.91200     0.31932128E-02
     4.91600     0.32158154E-02
     4.92000     0.32385871E-02
     4.92400     0.32615301E-02
     4.92800     0.32846462E-02
     4.93200     0.33079375E-02
     4.93600     0.33314060E-02
     4.94000     0.33550538E-02
     4.94400     0.33788830E-02
     4.94800     0.34028957E-02
     4.95200     0.34270941E-02
     4.95600     0.34514804E-02
     4.96000     0.34760567E-02
     4.96400     0.35008254E-02
     4.96800     0.35257888E-02
     4.97200     0.35509490E-02
     4.97600     0.35763086E-02
     4.98000     0.36018699E-02
     4.98400     0.36276352E-02
     4.98800     0.36536071E-02
     4.99200     0.36797881E-02
     4.99600     0.37061806E-02
     5.00000     0.37327873E-02
     5.00400     0.37596107E-02
     5.00800     0.37866535E-02
     5.01200     0.38139184E-02
     5.01600     0.38414080E-02
     5.02000     0.38691251E-02
     5.02400     0.38970726E-02
     5.02800     0.39252533E-02
     5.03200     0.39536701E-02
     5.03600     0.39823258E-02
     5.04000     0.40112235E-02
     5.04400     0.40403663E-02
     5.04800     0.40697570E-02
     5.05200     0.40993990E-02
     5.05600     0.41292953E-02
     5.06000     0.41594491E-02
     5.06400     0.41898638E-02
     5.06800     0.42205425E-02
     5.07200     0.42514888E-02
     5.07600     0.42827059E-02
     5.08000     0.43141974E-02
     5.08400     0.43459668E-02
     5.08800     0.43780177E-02
     5.09200     0.44103536E-02
     5.09600     0.44429784E-02
     5.10000     0.44758957E-02
     5.10400     0.45091094E-02
     5.10800     0.45426234E-02
     5.11200     0.45764415E-02
     5.11600     0.46105678E-02
     5.12000     0.46450064E-02
     5.12400     0.46797614E-02
     5.12800     0.47148370E-02
     5.13200     0.47502375E-02
     5.13600     0.47859672E-02
     5.14000     0.48220305E-02
     5.14400     0.48584319E-02
     5.14800     0.48951760E-02
     5.15200     0.49322675E-02
     5.15600     0.49697110E-02
     5.16000     0.50075113E-02
     5.16400     0.50456734E-02
     5.16800     0.50842022E-02
     5.17200     0.51231027E-02
     5.17600     0.51623802E-02
     5.18000     0.52020397E-02
     5.18400     0.52420866E-02
     5.18800     0.52825264E-02
     5.19200     0.53233646E-02
     5.19600     0.53646066E-02
     5.20000     0.54062583E-02
     5.20400     0.54483255E-02
     5.20800     0.54908140E-02
     5.21200     0.55337298E-02
     5.21600     0.55770791E-02
     5.22000     0.56208681E-02
     5.22400     0.56651031E-02
     5.22800     0.57097906E-02
     5.23200     0.57549371E-02
     5.23600     0.58005494E-02
     5.24000     0.58466342E-02
     5.24400     0.58931985E-02
     5.24800     0.59402494E-02
     5.25200     0.59877940E-02
     5.25600     0.60358396E-02
     5.26000     0.60843939E-02
     5.26400     0.61334642E-02
     5.26800     0.61830585E-02
     5.27200     0.62331845E-02
     5.27600     0.62838505E-02
     5.28000     0.63350644E-02
     5.28400     0.63868348E-02
     5.28800     0.64391701E-02
     5.29200     0.64920790E-02
     5.29600     0.65455703E-02
     5.30000     0.65996532E-02
     5.30400     0.66543367E-02
     5.30800     0.67096303E-02
     5.31200     0.67655436E-02
     5.31600     0.68220863E-02
     5.32000     0.68792683E-02
     5.32400     0.69370999E-02
     5.32800     0.69955913E-02
     5.33200     0.70547531E-02
     5.33600     0.71145962E-02
     5.34000     0.71751315E-02
     5.34400     0.72363702E-02
     5.34800     0.72983239E-02
     5.35200     0.73610041E-02
     5.35600     0.74244229E-02
     5.36000     0.74885924E-02
     5.36400     0.75535250E-02
     5.36800     0.76192336E-02
     5.37200     0.76857309E-02
     5.37600     0.77530304E-02
     5.38000     0.78211454E-02
     5.38400     0.78900899E-02
     5.38800     0.79598780E-02
     5.39200     0.80305240E-02
     5.39600     0.81020427E-02
     5.40000     0.81744492E-02
     5.40400     0.82477589E-02
     5.40800     0.83219875E-02
     5.41200     0.83971511E-02
     5.41600     0.84732660E-02
     5.42000     0.85503493E-02
     5.42400     0.86284179E-02
     5.42800     0.87074895E-02
     5.43200     0.87875820E-02
     5.43600     0.88687139E-02
     5.44000     0.89509040E-02
     5.44400     0.90341715E-02
     5.44800     0.91185360E-02
     5.45200     0.92040178E-02
     5.45600     0.92906374E-02
     5.46000     0.93784160E-02
     5.46400     0.94673752E-02
     5.46800     0.95575371E-02
     5.47200     0.96489243E-02
     5.47600     0.97415601E-02
     5.48000     0.98354682E-02
     5.48400     0.99306729E-02
     5.48800     0.10027199E-01
     5.49200     0.10125073E-01
     5.49600     0.10224320E-01
     5.50000     0.10324967E-01
     5.50400     0.10427041E-01
     5.50800     0.10530572E-01
     5.51200     0.10635587E-01
     5.51600     0.10742117E-01
     5.52000     0.10850191E-01
     5.52400     0.10959842E-01
     5.52800     0.11071100E-01
     5.53200     0.11184000E-01
     5.53600     0.11298574E-01
     5.54000     0.11414857E-01
     5.54400     0.11532885E-01
     5.54800     0.11652694E-01
     5.55200     0.11774321E-01
     5.55600     0.11897805E-01
     5.56000     0.12023186E-01
     5.56400     0.12150504E-01
     5.56800     0.12279800E-01
     5.57200     0.12411118E-01
     5.57600     0.12544501E-01
     5.58000     0.12679996E-01
     5.58400     0.12817647E-01
     5.58800     0.12957504E-01
     5.59200     0.13099615E-01
     5.59600     0.13244031E-01
     5.60000     0.13390804E-01
     5.60400     0.13539988E-01
     5.60800     0.13691638E-01
     5.61200     0.13845810E-01
     5.61600     0.14002564E-01
     5.62000     0.14161959E-01
     5.62400     0.14324058E-01
     5.62800     0.14488925E-01
     5.63200     0.14656624E-01
     5.63600     0.14827226E-01
     5.64000     0.15000799E-01
     5.64400     0.15177415E-01
     5.64800     0.15357150E-01
     5.65200     0.15540080E-01
     5.65600     0.15726284E-01
     5.66000     0.15915844E-01
     5.66400     0.16108845E-01
     5.66800     0.16305374E-01
     5.67200     0.16505521E-01
     5.67600     0.16709380E-01
     5.68000     0.16917045E-01
     5.68400     0.17128618E-01
     5.68800     0.17344200E-01
     5.69200     0.17563898E-01
     5.69600     0.17787823E-01
     5.70000     0.18016087E-01
     5.70400     0.18248808E-01
     5.70800     0.18486109E-01
     5.71200     0.18728115E-01
     5.71600     0.18974958E-01
     5.72000     0.19226772E-01
     5.72400     0.19483699E-01
     5.72800     0.19745884E-01
     5.73200     0.20013477E-01
     5.73600     0.20286635E-01
     5.74000     0.20565521E-01
     5.74400     0.20850304E-01
     5.74800     0.21141158E-01
     5.75200     0.21438265E-01
     5.75600     0.21741815E-01
     5.76000     0.22052004E-01
     5.76400     0.22369035E-01
     5.76800     0.22693122E-01
     5.77200     0.23024485E-01
     5.77600     0.23363354E-01
     5.78000     0.23709969E-01
     5.78400     0.24064580E-01
     5.78800     0.24427446E-01
     5.79200     0.24798838E-01
     5.79600     0.25179040E-01
     5.80000     0.25568345E-01
     5.80400     0.25967063E-01
     5.80800     0.26375513E-01
     5.81200     0.26794033E-01
     5.81600     0.27222972E-01
     5.82000     0.27662699E-01
     5.82400     0.28113596E-01
     5.82800     0.28576066E-01
     5.83200     0.29050529E-01
     5.83600     0.29537427E-01
     5.84000     0.30037221E-01
     5.84400     0.30550396E-01
     5.84800     0.31077460E-01
     5.85200     0.31618947E-01
     5.85600     0.32175418E-01
     5.86000     0.32747462E-01
     5.86400     0.33335700E-01
     5.86800     0.33940783E-01
     5.87200     0.34563399E-01
     5.87600     0.35204272E-01
     5.88000     0.35864164E-01
     5.88400     0.36543881E-01
     5.88800     0.37244273E-01
     5.89200     0.37966237E-01
     5.89600     0.38710724E-01
     5.90000     0.39478739E-01
     5.90400     0.40271344E-01
     5.90800     0.41089667E-01
     5.91200     0.41934903E-01
     5.91600     0.42808322E-01
     5.92000     0.43711272E-01
     5.92400     0.44645185E-01
     5.92800     0.45611587E-01
     5.93200     0.46612101E-01
     5.93600     0.47648461E-01
     5.94000     0.48722515E-01
     5.94400     0.49836236E-01
     5.94800     0.50991737E-01
     5.95200     0.52191278E-01
     5.95600     0.53437281E-01
     5.96000     0.54732347E-01
     5.96400     0.56079266E-01
     5.96800     0.57481043E-01
     5.97200     0.58940910E-01
     5.97600     0.60462355E-01
     5.98000     0.62049142E-01
     5.98400     0.63705340E-01
     5.98800     0.65435357E-01
     5.99200     0.67243970E-01
     5.99600     0.69136369E-01
     6.00000     0.71118197E-01
     6.00400     0.73195602E-01
     6.00800     0.75375296E-01
     6.01200     0.77664612E-01
     6.01600     0.80071584E-01
     6.02000     0.82605025E-01
     6.02400     0.85274625E-01
     6.02800     0.88091056E-01
     6.03200     0.91066096E-01
     6.03600     0.94212774E-01
     6.04000     0.97545529E-01
     6.04400     0.10108040    
     6.04800     0.10483525    
     6.05200     0.10882999    
     6.05600     0.11308692    
     6.06000     0.11763101    
     6.06400     0.12249031    
     6.06800     0.12769642    
     6.07200     0.13328494    
     6.07600     0.13929614    
     6.08000     0.14577556    
     6.08400     0.15277481    
     6.08800     0.16035234    
     6.09200     0.16857440    
     6.09600     0.17751588    
     6.10000     0.18726123    
     6.10400     0.19790519    
     6.10800     0.20955318    
     6.11200     0.22232124    
     6.11600     0.23633505    
     6.12000     0.25172784    
     6.12400     0.26863669    
     6.12800     0.28719709    
     6.13200     0.30753565    
     6.13600     0.32976118    
     6.14000     0.35395469    
     6.14400     0.38015920    
     6.14800     0.40837012    
     6.15200     0.43852750    
     6.15600     0.47051102    
     6.16000     0.50413864    
     6.16400     0.53916923    
     6.16800     0.57530941    
     6.17200     0.61222400    
     6.17600     0.64954950    
     6.18000     0.68690936    
     6.18400     0.72392985    
     6.18800     0.76025513    
     6.19200     0.79556040    
     6.19600     0.82956216    
     6.20000     0.86202487    
     6.20400     0.89276386    
     6.20800     0.92164453    
     6.21200     0.94857844    
     6.21600     0.97351696    
     6.22000     0.99644350    
     6.22400      1.0173653    
     6.22800      1.0363054    
     6.23200      1.0532965    
     6.23600      1.0683756    
     6.24000      1.0815814    
     6.24400      1.0929536    
     6.24800      1.1025337    
     6.25200      1.1103675    
     6.25600      1.1165082    
     6.26000      1.1210200    
     6.26400      1.1239816    
     6.26800      1.1254884    
     6.27200      1.1256543    
     6.27600      1.1246123    
     6.28000      1.1225132    
     6.28400      1.1195241    
     6.28800      1.1158252    
     6.29200      1.1116063    
     6.29600      1.1070624    
     6.30000      1.1023903    
     6.30400      1.0977838    
     6.30800      1.0934304    
     6.31200      1.0895077    
     6.31600      1.0861805    
     6.32000      1.0835984    
     6.32400      1.0818937    
     6.32800      1.0811797    
     6.33200      1.0815493    
     6.33600      1.0830737    
     6.34000      1.0858011    
     6.34400      1.0897555    
     6.34800      1.0949357    
     6.35200      1.1013134    
     6.35600      1.1088332    
     6.36000      1.1174113    
     6.36400      1.1269362    
     6.36800      1.1372698    
     6.37200      1.1482498    
     6.37600      1.1596928    
     6.38000      1.1713995    
     6.38400      1.1831605    
     6.38800      1.1947619    
     6.39200      1.2059931    
     6.39600      1.2166523    
     6.40000      1.2265532    
     6.40400      1.2355298    
     6.40800      1.2434399    
     6.41200      1.2501677    
     6.41600      1.2556244    
     6.42000      1.2597478    
     6.42400      1.2625000    
     6.42800      1.2638652    
     6.43200      1.2638463    
     6.43600      1.2624613    
     6.44000      1.2597399    
     6.44400      1.2557212    
     6.44800      1.2504508    
     6.45200      1.2439800    
     6.45600      1.2363643    
     6.46000      1.2276637    
     6.46400      1.2179430    
     6.46800      1.2072722    
     6.47200      1.1957271    
     6.47600      1.1833900    
     6.48000      1.1703498    
     6.48400      1.1567018    
     6.48800      1.1425470    
     6.49200      1.1279913    
     6.49600      1.1131436    
     6.50000      1.0981142    
     6.50400      1.0830128    
     6.50800      1.0679464    
     6.51200      1.0530171    
     6.51600      1.0383207    
     6.52000      1.0239445    
     6.52400      1.0099664    
     6.52800     0.99645368    
     6.53200     0.98346217    
     6.53600     0.97103609    
     6.54000     0.95920768    
     6.54400     0.94799737    
     6.54800     0.93741396    
     6.55200     0.92745507    
     6.55600     0.91810765    
     6.56000     0.90934854    
     6.56400     0.90114511    
     6.56800     0.89345603    
     6.57200     0.88623205    
     6.57600     0.87941690    
     6.58000     0.87294840    
     6.58400     0.86675961    
     6.58800     0.86078028    
     6.59200     0.85493832    
     6.59600     0.84916146    
     6.60000     0.84337896    
     6.60400     0.83752328    
     6.60800     0.83153163    
     6.61200     0.82534736    
     6.61600     0.81892106    
     6.62000     0.81221139    
     6.62400     0.80518546    
     6.62800     0.79781899    
     6.63200     0.79009605    
     6.63600     0.78200857    
     6.64000     0.77355556    
     6.64400     0.76474232    
     6.64800     0.75557949    
     6.65200     0.74608212    
     6.65600     0.73626891    
     6.66000     0.72616144    
     6.66400     0.71578368    
     6.66800     0.70516152    
     6.67200     0.69432251    
     6.67600     0.68329569    
     6.68000     0.67211145    
     6.68400     0.66080145    
     6.68800     0.64939846    
     6.69200     0.63793623    
     6.69600     0.62644923    
     6.70000     0.61497231    
     6.70400     0.60354031    
     6.70800     0.59218759    
     6.71200     0.58094752    
     6.71600     0.56985194    
     6.72000     0.55893062    
     6.72400     0.54821081    
     6.72800     0.53771682    
     6.73200     0.52746962    
     6.73600     0.51748668    
     6.74000     0.50778174    
     6.74400     0.49836478    
     6.74800     0.48924201    
     6.75200     0.48041603    
     6.75600     0.47188592    
     6.76000     0.46364749    
     6.76400     0.45569355    
     6.76800     0.44801417    
     6.77200     0.44059700    
     6.77600     0.43342757    
     6.78000     0.42648965    
     6.78400     0.41976554    
     6.78800     0.41323641    
     6.79200     0.40688268    
     6.79600     0.40068429    
     6.80000     0.39462109    
     6.80400     0.38867318    
     6.80800     0.38282124    
     6.81200     0.37704689    
     6.81600     0.37133293    
     6.82000     0.36566371    
     6.82400     0.36002527    
     6.82800     0.35440558    
     6.83200     0.34879462    
     6.83600     0.34318444    
     6.84000     0.33756914    
     6.84400     0.33194481    
     6.84800     0.32630942    
     6.85200     0.32066263    
     6.85600     0.31500562    
     6.86000     0.30934087    
     6.86400     0.30367201    
     6.86800     0.29800358    
     6.87200     0.29234087    
     6.87600     0.28668977    
     6.88000     0.28105665    
     6.88400     0.27544824    
     6.88800     0.26987154    
     6.89200     0.26433377    
     6.89600     0.25884227    
     6.90000     0.25340443    
     6.90400     0.24802766    
     6.90800     0.24271927    
     6.91200     0.23748640    
     6.91600     0.23233594    
     6.92000     0.22727441    
     6.92400     0.22230788    
     6.92800     0.21744187    
     6.93200     0.21268127    
     6.93600     0.20803024    
     6.94000     0.20349218    
     6.94400     0.19906965    
     6.94800     0.19476439    
     6.95200     0.19057727    
     6.95600     0.18650834    
     6.96000     0.18255683    
     6.96400     0.17872120    
     6.96800     0.17499924    
     6.97200     0.17138805    
     6.97600     0.16788422    
     6.98000     0.16448381    
     6.98400     0.16118248    
     6.98800     0.15797557    
     6.99200     0.15485818    
     6.99600     0.15182522    
     7.00000     0.14887151    
     7.00400     0.14599187    
     7.00800     0.14318112    
     7.01200     0.14043425    
     7.01600     0.13774636    
     7.02000     0.13511281    
     7.02400     0.13252925    
     7.02800     0.12999163    
     7.03200     0.12749626    
     7.03600     0.12503985    
     7.04000     0.12261954    
     7.04400     0.12023285    
     7.04800     0.11787775    
     7.05200     0.11555261    
     7.05600     0.11325620    
     7.06000     0.11098765    
     7.06400     0.10874642    
     7.06800     0.10653229    
     7.07200     0.10434529    
     7.07600     0.10218566    
     7.08000     0.10005387    
     7.08400     0.97950483E-01
     7.08800     0.95876228E-01
     7.09200     0.93831904E-01
     7.09600     0.91818378E-01
     7.10000     0.89836558E-01
     7.10400     0.87887377E-01
     7.10800     0.85971769E-01
     7.11200     0.84090658E-01
     7.11600     0.82244938E-01
     7.12000     0.80435455E-01
     7.12400     0.78662997E-01
     7.12800     0.76928274E-01
     7.13200     0.75231906E-01
     7.13600     0.73574405E-01
     7.14000     0.71956165E-01
     7.14400     0.70377450E-01
     7.14800     0.68838387E-01
     7.15200     0.67338957E-01
     7.15600     0.65878993E-01
     7.16000     0.64458183E-01
     7.16400     0.63076071E-01
     7.16800     0.61732061E-01
     7.17200     0.60425431E-01
     7.17600     0.59155338E-01
     7.18000     0.57920836E-01
     7.18400     0.56720885E-01
     7.18800     0.55554370E-01
     7.19200     0.54420111E-01
     7.19600     0.53316886E-01
     7.20000     0.52243436E-01
     7.20400     0.51198487E-01
     7.20800     0.50180762E-01
     7.21200     0.49188990E-01
     7.21600     0.48221925E-01
     7.22000     0.47278350E-01
     7.22400     0.46357090E-01
     7.22800     0.45457022E-01
     7.23200     0.44577078E-01
     7.23600     0.43716258E-01
     7.24000     0.42873630E-01
     7.24400     0.42048335E-01
     7.24800     0.41239593E-01
     7.25200     0.40446699E-01
     7.25600     0.39669027E-01
     7.26000     0.38906027E-01
     7.26400     0.38157222E-01
     7.26800     0.37422203E-01
     7.27200     0.36700630E-01
     7.27600     0.35992216E-01
     7.28000     0.35296733E-01
     7.28400     0.34613994E-01
     7.28800     0.33943856E-01
     7.29200     0.33286207E-01
     7.29600     0.32640966E-01
     7.30000     0.32008070E-01
     7.30400     0.31387474E-01
     7.30800     0.30779148E-01
     7.31200     0.30183065E-01
     7.31600     0.29599206E-01
     7.32000     0.29027549E-01
     7.32400     0.28468072E-01
     7.32800     0.27920748E-01
     7.33200     0.27385538E-01
     7.33600     0.26862398E-01
     7.34000     0.26351268E-01
     7.34400     0.25852073E-01
     7.34800     0.25364724E-01
     7.35200     0.24889112E-01
     7.35600     0.24425112E-01
     7.36000     0.23972576E-01
     7.36400     0.23531339E-01
     7.36800     0.23101214E-01
     7.37200     0.22681998E-01
     7.37600     0.22273468E-01
     7.38000     0.21875383E-01
     7.38400     0.21487489E-01
     7.38800     0.21109519E-01
     7.39200     0.20741193E-01
     7.39600     0.20382223E-01
     7.40000     0.20032315E-01
     7.40400     0.19691171E-01
     7.40800     0.19358489E-01
     7.41200     0.19033971E-01
     7.41600     0.18717318E-01
     7.42000     0.18408236E-01
     7.42400     0.18106439E-01
     7.42800     0.17811648E-01
     7.43200     0.17523590E-01
     7.43600     0.17242008E-01
     7.44000     0.16966651E-01
     7.44400     0.16697284E-01
     7.44800     0.16433683E-01
     7.45200     0.16175638E-01
     7.45600     0.15922952E-01
     7.46000     0.15675443E-01
     7.46400     0.15432941E-01
     7.46800     0.15195290E-01
     7.47200     0.14962347E-01
     7.47600     0.14733982E-01
     7.48000     0.14510074E-01
     7.48400     0.14290516E-01
     7.48800     0.14075209E-01
     7.49200     0.13864063E-01
     7.49600     0.13656997E-01
     7.50000     0.13453936E-01
     7.50400     0.13254810E-01
     7.50800     0.13059556E-01
     7.51200     0.12868115E-01
     7.51600     0.12680430E-01
     7.52000     0.12496446E-01
     7.52400     0.12316114E-01
     7.52800     0.12139382E-01
     7.53200     0.11966200E-01
     7.53600     0.11796520E-01
     7.54000     0.11630292E-01
     7.54400     0.11467466E-01
     7.54800     0.11307991E-01
     7.55200     0.11151817E-01
     7.55600     0.10998889E-01
     7.56000     0.10849154E-01
     7.56400     0.10702555E-01
     7.56800     0.10559035E-01
     7.57200     0.10418533E-01
     7.57600     0.10280989E-01
     7.58000     0.10146339E-01
     7.58400     0.10014519E-01
     7.58800     0.98854627E-02
     7.59200     0.97591027E-02
     7.59600     0.96353709E-02
     7.60000     0.95141985E-02
     7.60400     0.93955162E-02
     7.60800     0.92792547E-02
     7.61200     0.91653448E-02
     7.61600     0.90537179E-02
     7.62000     0.89443060E-02
     7.62400     0.88370422E-02
     7.62800     0.87318611E-02
     7.63200     0.86286986E-02
     7.63600     0.85274924E-02
     7.64000     0.84281821E-02
     7.64400     0.83307092E-02
     7.64800     0.82350178E-02
     7.65200     0.81410537E-02
     7.65600     0.80487655E-02
     7.66000     0.79581039E-02
     7.66400     0.78690220E-02
     7.66800     0.77814754E-02
     7.67200     0.76954220E-02
     7.67600     0.76108220E-02
     7.68000     0.75276377E-02
     7.68400     0.74458337E-02
     7.68800     0.73653765E-02
     7.69200     0.72862347E-02
     7.69600     0.72083784E-02
     7.70000     0.71317796E-02
     7.70400     0.70564117E-02
     7.70800     0.69822494E-02
     7.71200     0.69092688E-02
     7.71600     0.68374471E-02
     7.72000     0.67667621E-02
     7.72400     0.66971930E-02
     7.72800     0.66287192E-02
     7.73200     0.65613212E-02
     7.73600     0.64949795E-02
     7.74000     0.64296755E-02
     7.74400     0.63653907E-02
     7.74800     0.63021069E-02
     7.75200     0.62398064E-02
     7.75600     0.61784714E-02
     7.76000     0.61180843E-02
     7.76400     0.60586277E-02
     7.76800     0.60000842E-02
     7.77200     0.59424364E-02
     7.77600     0.58856671E-02
     7.78000     0.58297590E-02
     7.78400     0.57746948E-02
     7.78800     0.57204573E-02
     7.79200     0.56670294E-02
     7.79600     0.56143940E-02
     7.80000     0.55625339E-02
     7.80400     0.55114323E-02
     7.80800     0.54610722E-02
     7.81200     0.54114371E-02
     7.81600     0.53625104E-02
     7.82000     0.53142758E-02
     7.82400     0.52667173E-02
     7.82800     0.52198192E-02
     7.83200     0.51735659E-02
     7.83600     0.51279424E-02
     7.84000     0.50829339E-02
     7.84400     0.50385260E-02
     7.84800     0.49947046E-02
     7.85200     0.49514562E-02
     7.85600     0.49087676E-02
     7.86000     0.48666260E-02
     7.86400     0.48250192E-02
     7.86800     0.47839351E-02
     7.87200     0.47433625E-02
     7.87600     0.47032901E-02
     7.88000     0.46637073E-02
     7.88400     0.46246040E-02
     7.88800     0.45859703E-02
     7.89200     0.45477968E-02
     7.89600     0.45100744E-02
     7.90000     0.44727943E-02
     7.90400     0.44359481E-02
     7.90800     0.43995278E-02
     7.91200     0.43635255E-02
     7.91600     0.43279337E-02
     7.92000     0.42927451E-02
     7.92400     0.42579527E-02
     7.92800     0.42235496E-02
     7.93200     0.41895292E-02
     7.93600     0.41558851E-02
     7.94000     0.41226109E-02
     7.94400     0.40897006E-02
     7.94800     0.40571480E-02
     7.95200     0.40249474E-02
     7.95600     0.39930930E-02
     7.96000     0.39615791E-02
     7.96400     0.39304002E-02
     7.96800     0.38995508E-02
     7.97200     0.38690255E-02
     7.97600     0.38388190E-02
     7.98000     0.38089260E-02
     7.98400     0.37793415E-02
     7.98800     0.37500603E-02
     7.99200     0.37210775E-02
     7.99600     0.36923879E-02
     8.00000     0.36639868E-02
     8.00400     0.36358693E-02
     8.00800     0.36080306E-02
     8.01200     0.35804661E-02
     8.01600     0.35531711E-02
     8.02000     0.35261411E-02
     8.02400     0.34993715E-02
     8.02800     0.34728580E-02
     8.03200     0.34465961E-02
     8.03600     0.34205818E-02
     8.04000     0.33948107E-02
     8.04400     0.33692788E-02
     8.04800     0.33439821E-02
     8.05200     0.33189166E-02
     8.05600     0.32940786E-02
     8.06000     0.32694642E-02
     8.06400     0.32450698E-02
     8.06800     0.32208919E-02
     8.07200     0.31969269E-02
     8.07600     0.31731714E-02
     8.08000     0.31496222E-02
     8.08400     0.31262759E-02
     8.08800     0.31031296E-02
     8.09200     0.30801800E-02
     8.09600     0.30574242E-02
     8.10000     0.30348592E-02
     8.10400     0.30124823E-02
     8.10800     0.29902907E-02
     8.11200     0.29682816E-02
     8.11600     0.29464525E-02
     8.12000     0.29248007E-02
     8.12400     0.29033237E-02
     8.12800     0.28820191E-02
     8.13200     0.28608845E-02
     8.13600     0.28399175E-02
     8.14000     0.28191158E-02
     8.14400     0.27984772E-02
     8.14800     0.27779994E-02
     8.15200     0.27576803E-02
     8.15600     0.27375177E-02
     8.16000     0.27175096E-02
     8.16400     0.26976539E-02
     8.16800     0.26779485E-02
     8.17200     0.26583916E-02
     8.17600     0.26389810E-02
     8.18000     0.26197149E-02
     8.18400     0.26005915E-02
     8.18800     0.25816087E-02
     8.19200     0.25627648E-02
     8.19600     0.25440580E-02
     8.20000     0.25254865E-02
     8.20400     0.25070485E-02
     8.20800     0.24887422E-02
     8.21200     0.24705661E-02
     8.21600     0.24525183E-02
     8.22000     0.24345972E-02
     8.22400     0.24168012E-02
     8.22800     0.23991286E-02
     8.23200     0.23815780E-02
     8.23600     0.23641476E-02
     8.24000     0.23468360E-02
     8.24400     0.23296417E-02
     8.24800     0.23125631E-02
     8.25200     0.22955988E-02
     8.25600     0.22787473E-02
     8.26000     0.22620072E-02
     8.26400     0.22453771E-02
     8.26800     0.22288557E-02
     8.27200     0.22124415E-02
     8.27600     0.21961332E-02
     8.28000     0.21799296E-02
     8.28400     0.21638293E-02
     8.28800     0.21478311E-02
     8.29200     0.21319337E-02
     8.29600     0.21161358E-02
     8.30000     0.21004364E-02
     8.30400     0.20848342E-02
     8.30800     0.20693279E-02
     8.31200     0.20539166E-02
     8.31600     0.20385990E-02
     8.32000     0.20233740E-02
     8.32400     0.20082406E-02
     8.32800     0.19931977E-02
     8.33200     0.19782441E-02
     8.33600     0.19633789E-02
     8.34000     0.19486010E-02
     8.34400     0.19339095E-02
     8.34800     0.19193032E-02
     8.35200     0.19047813E-02
     8.35600     0.18903427E-02
     8.36000     0.18759865E-02
     8.36400     0.18617117E-02
     8.36800     0.18475174E-02
     8.37200     0.18334028E-02
     8.37600     0.18193668E-02
     8.38000     0.18054085E-02
     8.38400     0.17915272E-02
     8.38800     0.17777219E-02
     8.39200     0.17639917E-02
     8.39600     0.17503359E-02
     8.40000     0.17367535E-02
     8.40400     0.17232437E-02
     8.40800     0.17098057E-02
     8.41200     0.16964387E-02
     8.41600     0.16831419E-02
     8.42000     0.16699144E-02
     8.42400     0.16567556E-02
     8.42800     0.16436646E-02
     8.43200     0.16306406E-02
     8.43600     0.16176829E-02
     8.44000     0.16047908E-02
     8.44400     0.15919636E-02
     8.44800     0.15792003E-02
     8.45200     0.15665005E-02
     8.45600     0.15538633E-02
     8.46000     0.15412880E-02
     8.46400     0.15287740E-02
     8.46800     0.15163205E-02
     8.47200     0.15039269E-02
     8.47600     0.14915925E-02
     8.48000     0.14793166E-02
     8.48400     0.14670986E-02
     8.48800     0.14549378E-02
     8.49200     0.14428335E-02
     8.49600     0.14307852E-02
     8.50000     0.14187922E-02
     8.50400     0.14068539E-02
     8.50800     0.13949697E-02
     8.51200     0.13831389E-02
     8.51600     0.13713610E-02
     8.52000     0.13596353E-02
     8.52400     0.13479613E-02
     8.52800     0.13363384E-02
     8.53200     0.13247660E-02
     8.53600     0.13132435E-02
     8.54000     0.13017704E-02
     8.54400     0.12903462E-02
     8.54800     0.12789702E-02
     8.55200     0.12676419E-02
     8.55600     0.12563608E-02
     8.56000     0.12451263E-02
     8.56400     0.12339379E-02
     8.56800     0.12227951E-02
     8.57200     0.12116974E-02
     8.57600     0.12006442E-02
     8.58000     0.11896350E-02
     8.58400     0.11786694E-02
     8.58800     0.11677468E-02
     8.59200     0.11568667E-02
     8.59600     0.11460286E-02
     8.60000     0.11352321E-02
     8.60400     0.11244766E-02
     8.60800     0.11137618E-02
     8.61200     0.11030870E-02
     8.61600     0.10924519E-02
     8.62000     0.10818559E-02
     8.62400     0.10712987E-02
     8.62800     0.10607797E-02
     8.63200     0.10502985E-02
     8.63600     0.10398546E-02
     8.64000     0.10294477E-02
     8.64400     0.10190772E-02
     8.64800     0.10087427E-02
     8.65200     0.99844376E-03
     8.65600     0.98818000E-03
     8.66000     0.97795096E-03
     8.66400     0.96775621E-03
     8.66800     0.95759534E-03
     8.67200     0.94746793E-03
     8.67600     0.93737356E-03
     8.68000     0.92731181E-03
     8.68400     0.91728229E-03
     8.68800     0.90728459E-03
     8.69200     0.89731829E-03
     8.69600     0.88738302E-03
     8.70000     0.87747837E-03
     8.70400     0.86760394E-03
     8.70800     0.85775935E-03
     8.71200     0.84794421E-03
     8.71600     0.83815814E-03
     8.72000     0.82840076E-03
     8.72400     0.81867168E-03
     8.72800     0.80897053E-03
     8.73200     0.79929694E-03
     8.73600     0.78965055E-03
     8.74000     0.78003097E-03
     8.74400     0.77043784E-03
     8.74800     0.76087081E-03
     8.75200     0.75132952E-03
     8.75600     0.74181359E-03
     8.76000     0.73232269E-03
     8.76400     0.72285645E-03
     8.76800     0.71341452E-03
     8.77200     0.70399656E-03
     8.77600     0.69460223E-03
     8.78000     0.68523116E-03
     8.78400     0.67588303E-03
     8.78800     0.66655749E-03
     8.79200     0.65725421E-03
     8.79600     0.64797285E-03
     8.80000     0.63871307E-03
     8.80400     0.62947455E-03
     8.80800     0.62025695E-03
     8.81200     0.61105994E-03
     8.81600     0.60188321E-03
     8.82000     0.59272641E-03
     8.82400     0.58358924E-03
     8.82800     0.57447137E-03
     8.83200     0.56537248E-03
     8.83600     0.55629225E-03
     8.84000     0.54723038E-03
     8.84400     0.53818653E-03
     8.84800     0.52916040E-03
     8.85200     0.52015169E-03
     8.85600     0.51116007E-03
     8.86000     0.50218525E-03
     8.86400     0.49322691E-03
     8.86800     0.48428475E-03
     8.87200     0.47535847E-03
     8.87600     0.46644776E-03
     8.88000     0.45755232E-03
     8.88400     0.44867186E-03
     8.88800     0.43980607E-03
     8.89200     0.43095466E-03
     8.89600     0.42211733E-03
     8.90000     0.41329378E-03
     8.90400     0.40448374E-03
     8.90800     0.39568689E-03
     8.91200     0.38690295E-03
     8.91600     0.37813164E-03
     8.92000     0.36937265E-03
     8.92400     0.36062571E-03
     8.92800     0.35189053E-03
     8.93200     0.34316681E-03
     8.93600     0.33445429E-03
     8.94000     0.32575267E-03
     8.94400     0.31706166E-03
     8.94800     0.30838100E-03
     8.95200     0.29971039E-03
     8.95600     0.29104956E-03
     8.96000     0.28239823E-03
     8.96400     0.27375611E-03
     8.96800     0.26512294E-03
     8.97200     0.25649843E-03
     8.97600     0.24788231E-03
     8.98000     0.23927431E-03
     8.98400     0.23067414E-03
     8.98800     0.22208153E-03
     8.99200     0.21349622E-03
     8.99600     0.20491792E-03
     9.00000     0.19634637E-03
