  -516.561975005580      -1.187815606787048E-051 -5.003587552960884E-052
  -515.769094000199       1.680956741854443E-025  2.233536048608047E-025
  -514.976212994818      -1.069346633844003E-025 -1.085577124070898E-024
  -514.183331989437      -1.094821544632514E-024  2.172132697957114E-024
  -513.390450984057       3.787002788682774E-024 -2.187674699820035E-024
  -512.597569978676      -7.064899331845071E-024 -4.741717642240573E-025
  -511.804688973295       8.555938749479561E-024  6.684689938213961E-024
  -511.011807967914      -4.979359795148044E-024 -1.541616274990992E-023
  -510.218926962534      -6.475709960114965E-024  2.298308644670650E-023
  -509.426045957153       2.624128869915769E-023 -2.321460487519359E-023
  -508.633164951772      -5.053668254333706E-023  8.886301643738262E-024
  -507.840283946391       7.040348475405738E-023  2.564027505011965E-023
  -507.047402941010      -7.236083743312459E-023 -8.109890684312570E-023
  -506.254521935630       4.111214636726111E-023  1.502865867637911E-022
  -505.461640930249       3.583408491215807E-023 -2.165241045404252E-022
  -504.668759924868      -1.624683370257076E-022  2.547266149450847E-022
  -503.875878919487       3.289964536933845E-022 -2.357227004273528E-022
  -503.082997914107      -5.088303452413886E-022  1.336358197678063E-022
  -502.290116908726       6.596199791724758E-022  6.487212271469724E-023
  -501.497235903345      -7.294255081700943E-022 -3.516517411338011E-022
  -500.704354897964       6.679329947109123E-022  6.911736294131436E-022
  -499.911473892583      -4.411078717944207E-022 -1.020434495477200E-021
  -499.118592887203       4.620764667666793E-023  1.256586791349000E-021
  -498.325711881822       4.769417582741237E-022 -1.312612191167328E-021
  -497.532830876441      -1.042668702144724E-021  1.119207801526742E-021
  -496.739949871060       1.527492121472887E-021 -6.488103545586430E-022
  -495.947068865680      -1.790687817382253E-021 -6.406268159214755E-023
  -495.154187860299       1.705615515055089E-021  9.126303687871577E-022
  -494.361306854918      -1.196727187078001E-021 -1.723415371875327E-021
  -493.568425849537       2.743265598053191E-022  2.280580630758112E-021
  -492.775544844156       9.423898120687998E-022 -2.368046857950146E-021
  -491.982663838776      -2.222994918241020E-021  1.823633186753191E-021
  -491.189782833395       3.250311729371481E-021 -5.949591443054997E-022
  -490.396901828014      -3.672729082414603E-021 -1.216201160107314E-021
  -489.604020822633       3.178799695404755E-021  3.334914036380271E-021
  -488.811139817252      -1.581810322865097E-021 -5.330456245826080E-021
  -488.018258811872      -1.103314939492497E-021  6.674971167612381E-021
  -487.225377806491       4.610713765152517E-021 -6.839593712445935E-021
  -486.432496801110      -8.419891083125940E-021  5.414408833461596E-021
  -485.639615795729       1.180905387396485E-020 -2.229843188933868E-021
  -484.846734790349      -1.396624290802247E-020 -2.548245638997124E-021
  -484.053853784968       1.414589199788775E-020  8.377376174060541E-021
  -483.260972779587      -1.184528633360726E-020 -1.437204932929869E-020
  -482.468091774206       6.965251713291742E-021  1.942019381267637E-020
  -481.675210768825       8.459702073959299E-023 -2.237334321350758E-020
  -480.882329763445      -8.371213953537749E-021  2.228307952699526E-020
  -480.089448758064       1.653553584403106E-020 -1.864050068293653E-020
  -479.296567752683      -2.300200298862016E-020  1.156626041716209E-020
  -478.503686747302       2.627480861268889E-020 -1.899529343423721E-021
  -477.710805741921      -2.527116979328992E-020 -8.853059432823099E-021
  -476.917924736541       1.962438675925640E-020  1.872332773349374E-020
  -476.125043731160      -9.883907625156983E-021 -2.562509593821916E-020
  -475.332162725779      -2.450517254466852E-021  2.778394710987208E-020
  -474.539281720398       1.509762756463163E-020 -2.417302621650229E-020
  -473.746400715018      -2.536448097863669E-020  1.485887203797277E-020
  -472.953519709637       3.066987139133864E-020 -1.164382673249896E-021
  -472.160638704256      -2.913094634938648E-020 -1.441926322306037E-020
  -471.367757698875       2.009252497069952E-020  2.859532649518489E-020
  -470.574876693494      -4.470510240004176E-021 -3.786463104092690E-020
  -469.781995688114      -1.519954036975067E-020  3.927456770128553E-020
  -468.989114682733       3.506971878264931E-020 -3.116999427794770E-020
  -468.196233677352      -5.063377770171591E-020  1.377656939398176E-020
  -467.403352671971       5.763830797225350E-020  1.054438949552891E-020
  -466.610471666591      -5.308759958611031E-020 -3.748370820478091E-020
  -465.817590661210       3.612919932215369E-020  6.144785085980613E-020
  -465.024709655829      -8.597553092066702E-021 -7.662786643700079E-020
  -464.231828650448      -2.496762266107607E-020  7.829793154693370E-020
  -463.438947645067       5.792377340350544E-020 -6.408378210467347E-020
  -462.646066639687      -8.271890584566472E-020  3.490256375152203E-020
  -461.853185634306       9.250464189007997E-020  4.701329588355452E-021
  -461.060304628925      -8.286942888721552E-020 -4.700973289421173E-020
  -460.267423623544       5.330965660717860E-020  8.241037913713721E-020
  -459.474542618163      -8.046695295426547E-021 -1.013560162497085E-019
  -458.681661612783      -4.412330741126778E-020  9.667249591719627E-020
  -457.888780607402       9.109471399679066E-020 -6.574318495034182E-020
  -457.095899602021      -1.197508417532503E-019  1.203652693150469E-020
  -456.303018596640       1.189598953818913E-019  5.450629549003604E-020
  -455.510137591260      -8.270815548758965E-020 -1.185366685483416E-019
  -454.717256585879       1.267103352490334E-020  1.618563092930667E-019
  -453.924375580498       8.048390234148151E-020 -1.671723903035427E-019
  -453.131494575117      -1.776156752056852E-019  1.224235634063373E-019
  -452.338613569736       2.536983159507879E-019 -2.479760252531152E-020
  -451.545732564356      -2.823077048698251E-019 -1.165410002024716E-019
  -450.752851558975       2.413762055958832E-019  2.798951159619165E-019
  -449.959970553594      -1.191794457880096E-019 -4.332128949102641E-019
  -449.167089548213      -8.073301106039844E-020  5.390516382138378E-019
  -448.374208542832       3.369715016588002E-019 -5.617584088959880E-019
  -447.581327537452      -6.111561101062942E-019  4.756900191849151E-019
  -446.788446532071       8.526990586631285E-019 -2.728487754060466E-019
  -445.995565526690      -1.007269286373026E-018 -3.184295066611301E-020
  -445.202684521309       1.027797662319485E-018  3.992012574226635E-019
  -444.409803515929      -8.860539144518164E-019 -7.693957805238948E-019
  -443.616922510548       5.823061457420225E-019  1.070712257906877E-018
  -442.824041505167      -1.505606400089371E-019 -1.232614547848816E-018
  -442.031160499786      -3.425670002502990E-019  1.201147633924115E-018
  -441.238279494405       8.062579501195369E-019 -9.537804072539559E-019
  -440.445398489025      -1.140706836604555E-018  5.103048395047488E-019
  -439.652517483644       1.257170205424850E-018  6.338908563653570E-020
  -438.859636478263      -1.099480107320726E-018 -6.608858077382781E-019
  -438.066755472882       6.627054033508140E-019  1.150772051911787E-018
  -437.273874467502      -4.427002083946978E-021 -1.400697744150474E-018
  -436.480993462121      -7.551947762237578E-019  1.306459021135852E-018
  -435.688112456740       1.446719412574123E-018 -8.208720150494932E-019
  -434.895231451359      -1.877817620920856E-018 -2.372182651399246E-020
  -434.102350445978       1.869655949031279E-018  1.105281012307220E-018
  -433.309469440598      -1.297488069167257E-018 -2.218707276922640E-018
  -432.516588435217       1.277130967430900E-019  3.101134071144528E-018
  -431.723707429836       1.557000038238713E-018 -3.474197995534656E-018
  -430.930826424455      -3.551892761436111E-018  3.097888197889887E-018
  -430.137945419075       5.548130369981299E-018 -1.827256557025533E-018
  -429.345064413694      -7.174815119833318E-018 -3.389669089048489E-019
  -428.552183408313       8.060096664278134E-018  3.229453719453009E-018
  -427.759302402932      -7.901985236933112E-018 -6.501212079901780E-018
  -426.966421397551       6.536797923085570E-018  9.676413410498291E-018
  -426.173540392171      -3.992632445207839E-018 -1.221402016954409E-017
  -425.380659386790       5.160602825893361E-019  1.360614347483093E-017
  -424.587778381409       3.438129619590118E-018 -1.348139521822594E-017
  -423.794897376028      -7.260475370497939E-018  1.169441428396071E-017
  -423.002016370648       1.028217576318952E-017 -8.382689200680543E-018
  -422.209135365267      -1.189978725470357E-017  3.976638622994695E-018
  -421.416254359886       1.170683037569766E-017  8.449014670512422E-019
  -420.623373354505      -9.604595963679749E-018 -5.253714854824793E-018
  -419.830492349124       5.865365286623912E-018  8.415630943162760E-018
  -419.037611343744      -1.127831596221324E-018 -9.657360129141718E-018
  -418.244730338363      -3.684408166981930E-018  8.626919920296989E-018
  -417.451849332982       7.516264570430935E-018 -5.413781141185716E-018
  -416.658968327601      -9.386235477697319E-018  5.973990305422443E-019
  -415.866087322220       8.609355356384887E-018  4.797628009673539E-018
  -415.073206316840      -4.995248324974337E-018 -9.445866008761192E-018
  -414.280325311459      -1.023283187680982E-018  1.195146201823638E-017
  -413.487444306078       8.368824569435171E-018 -1.113145685313241E-017
  -412.694563300697      -1.542724192805573E-017  6.302515409138266E-018
  -411.901682295317       2.028473413880577E-017  2.487141245904616E-018
  -411.108801289936      -2.106815798907051E-017 -1.433690558835898E-017
  -410.315920284555       1.633811871637261E-017  2.752627510141249E-017
  -409.523039279174      -5.465396464530628E-018 -3.971749051383208E-017
  -408.730158273793      -1.108798256210902E-017  4.831238198024556E-017
  -407.937277268413       3.165799845152417E-017 -5.091438559905605E-017
  -407.144396263032      -5.349321754279644E-017  4.582140148046067E-017
  -406.351515257651       7.311142839792567E-017 -3.246270238532099E-017
  -405.558634252270      -8.686234123789771E-017  1.169267723696138E-017
  -404.765753246890       9.160705038625504E-017  1.413668212865030E-017
  -403.972872241509      -8.538948705102921E-017 -4.138070441758263E-017
  -403.179991236128       6.796737026116700E-017  6.559839632254628E-017
  -402.387110230747      -4.108668817029261E-017 -8.229276163233771E-017
  -401.594229225366       8.417022987795042E-018  8.778223883341835E-017
  -400.801348219986       2.488728207927892E-017 -8.004235902732508E-017
  -400.008467214605      -5.297322958737407E-017  5.934029784364384E-017
  -399.215586209224       7.032547343526979E-017 -2.850423614352511E-017
  -398.422705203843      -7.289062027485999E-017 -7.278364053915952E-018
  -397.629824198462       5.908349856256061E-017  4.116111876944105E-017
  -396.836943193082      -3.046038078668966E-017 -6.577164586495586E-017
  -396.044062187701      -8.122764628409234E-018  7.461717024030375E-017
  -395.251181182320       4.897450210992046E-017 -6.352666607690389E-017
  -394.458300176939      -8.265556776797435E-017  3.185195653382982E-017
  -393.665419171558       9.956884285608207E-017  1.684332618544452E-017
  -392.872538166178      -9.181531269601027E-017 -7.481799844379519E-017
  -392.079657160797       5.499514735951523E-017  1.310122250696126E-016
  -391.286776155416       1.039945127123346E-017 -1.726868854271386E-016
  -390.493895150035      -9.832021568601403E-017  1.876396433279439E-016
  -389.701014144655       1.974497389625206E-016 -1.666481964680474E-016
  -388.908133139274      -2.925119157828816E-016  1.056907108279486E-016
  -388.115252133893       3.665028713635665E-016 -7.470470770696779E-018
  -387.322371128512      -4.035632149477128E-016 -1.181494307101671E-016
  -386.529490123131       3.920547323351063E-016  2.550158455160876E-016
  -385.736609117751      -3.272871847246846E-016 -3.828324137104834E-016
  -384.943728112370       2.133040447671862E-016  4.803138738508158E-016
  -384.150847106989      -6.322767417013326E-017 -5.288824341942325E-016
  -383.357966101608      -1.021019118762968E-016  5.163066025338359E-016
  -382.565085096228       2.571314334007944E-016 -4.396181688440683E-016
  -381.772204090847      -3.758359319029736E-016  3.066739749486812E-016
  -380.979323085466       4.365096596633676E-016 -1.358865675707378E-016
  -380.186442080085      -4.262467485440799E-016 -4.606613422351297E-017
  -379.393561074704       3.442222681092926E-016  2.083684631959547E-016
  -378.600680069324      -2.030140132012603E-016 -3.214591213263975E-016
  -377.807799063943       2.749215250442296E-017  3.627920400593432E-016
  -377.014918058562       1.487839130889029E-016 -3.218869985487770E-016
  -376.222037053181      -2.892466010988044E-016  2.035996587477720E-016
  -375.429156047801       3.612100152050125E-016 -2.876157094622565E-017
  -374.636275042420      -3.427590287505312E-016 -1.682444433258679E-016
  -373.843394037039       2.282832047066200E-016  3.448574485577712E-016
  -373.050513031658      -3.140589349905018E-017 -4.579492355217922E-016
  -372.257632026277      -2.155758487594101E-016  4.724345917191493E-016
  -371.464751020897       4.660386135875708E-016 -3.692943633111068E-016
  -370.671870015516      -6.667477802974977E-016  1.513453593198498E-016
  -369.878989010135       7.678007546819352E-016  1.546697214272843E-016
  -369.086108004754      -7.330813117590059E-016 -5.005458552794560E-016
  -368.293226999373       5.492049938621387E-016  8.237031287454059E-016
  -367.500345993993      -2.309933911650076E-016 -1.058040826506776E-015
  -366.707464988612      -1.780408767546858E-016  1.146825403943790E-015
  -365.914583983231       6.109235863994512E-016 -1.055251580421771E-015
  -365.121702977850      -9.878438960078564E-016  7.800977077498580E-016
  -364.328821972470       1.230725005691981E-015 -3.541725725788403E-016
  -363.535940967089      -1.279292214063179E-015 -1.559872877621329E-016
  -362.743059961708       1.105557005665531E-015  6.595560024779198E-016
  -361.950178956327      -7.235519028124573E-016 -1.057001455592057E-015
  -361.157297950946       1.917021739545154E-016  1.259458183327872E-015
  -360.364416945566       3.936274554929094E-016 -1.208457201281868E-015
  -359.571535940185      -9.132764563309223E-016  8.920448116648250E-016
  -358.778654934804       1.247208134995614E-015 -3.535139080211931E-016
  -357.985773929423      -1.299658080220297E-015 -3.100497127119873E-016
  -357.192892924042       1.022823221422636E-015  9.605268744706306E-016
  -356.400011918662      -4.340476693671295E-016 -1.441818814737975E-015
  -355.607130913281      -3.779316531878033E-016  1.609961032033519E-015
  -354.814249907900       1.260537398723472E-015 -1.365183274603703E-015
  -354.021368902519      -2.019189422996465E-015  6.796891147322286E-016
  -353.228487897139       2.451112971853551E-015  3.850880095694886E-016
  -352.435606891758      -2.386060665432559E-015 -1.676762740622872E-015
  -351.642725886377       1.726755039278260E-015  2.968419703609386E-015
  -350.849844880996      -4.808378812680912E-016 -3.992553632514620E-015
  -350.056963875615      -1.223410030325731E-015  4.488369753327258E-015
  -349.264082870235       3.143186565938804E-015 -4.255095287999438E-015
  -348.471201864854      -4.951132345791556E-015  3.201716447386901E-015
  -347.678320859473       6.286649889210319E-015 -1.382792126531771E-015
  -346.885439854092      -6.821538219293779E-015 -9.889019240221797E-016
  -346.092558848712       6.329202196649216E-015  3.559013416675181E-015
  -345.299677843331      -4.744570270326660E-015 -5.878752707383849E-015
  -344.506796837950       2.201820121573513E-015  7.477849289898869E-015
  -343.713915832569       9.606355371065578E-016 -7.952880636876922E-015
  -342.921034827188      -4.233748754854260E-015  7.056079140969232E-015
  -342.128153821808       7.009331855726591E-015 -4.767581822203220E-015
  -341.335272816427      -8.681394290705881E-015  1.334915140771930E-015
  -340.542391811046       8.762406893806831E-015  2.732485280167390E-015
  -339.749510805665      -6.994631555508371E-015 -6.719069573010889E-015
  -338.956629800285       3.434821095951355E-015  9.805851809385568E-015
  -338.163748794904       1.507375437221578E-015 -1.120723329209102E-014
  -337.370867789523      -7.090970242780108E-015  1.032109580982474E-014
  -336.577986784142       1.232950074882578E-014 -6.866024993355747E-015
  -335.785105778761      -1.613423280504907E-014  9.785215068065141E-016
  -334.992224773381       1.749629517847636E-014  6.752906163878456E-015
  -334.199343768000      -1.567981697206527E-014 -1.533087997202146E-014
  -333.406462762619       1.039239368607566E-014  2.347078463172965E-014
  -332.613581757238      -1.898594734216023E-015 -2.978761882068185E-014
  -331.820700751857      -8.952433633650401E-015  3.302156178249574E-014
  -331.027819746477       2.080250446214577E-014 -3.226684273857184E-014
  -330.234938741096      -3.196253131513886E-014  2.716554202650046E-014
  -329.442057735715       4.067129919027496E-014 -1.803039086365286E-014
  -328.649176730334      -4.539332031885878E-014  5.867152152497942E-015
  -327.856295724954       4.510323856681911E-014  7.721644328369827E-015
  -327.063414719573      -3.950492164681701E-014 -2.075178865832158E-014
  -326.270533714192       2.914324871758000E-014  3.116729355683018E-014
  -325.477652708811      -1.538155021965482E-014 -3.719711331166592E-014
  -324.684771703430       2.362102364520902E-016  3.769513248877430E-014
  -323.891890698050       1.391775291652008E-014 -3.239749781776413E-014
  -323.099009692669      -2.473209677646720E-014  2.204210330379539E-014
  -322.306128687288       3.030236405896784E-014 -8.316322663760619E-015
  -321.513247681907      -2.954418535989189E-014 -6.372440141837987E-015
  -320.720366676527       2.245617005105160E-014  1.927719076476482E-014
  -319.927485671146      -1.021023255946445E-014 -2.778678318684081E-014
  -319.134604665765      -4.963638330143034E-015  2.991782353360666E-014
  -318.341723660384       2.009623393362466E-014 -2.473410836171740E-014
  -317.548842655003      -3.196176609798161E-014  1.260962891300527E-014
  -316.755961649623       3.765043585245172E-014  4.727824244785129E-015
  -315.963080644242      -3.513372375450821E-014 -2.440061770711865E-014
  -315.170199638861       2.371791356795920E-014  4.281735524020269E-014
  -314.377318633480      -4.292889154552655E-015 -5.628037263473884E-014
  -313.584437628099      -2.068723043657304E-014  6.166528360067934E-014
  -312.791556622719       4.751198579712255E-014 -5.704957619135536E-014
  -311.998675617338      -7.178165899168569E-014  4.216585279406999E-014
  -311.205794611957       8.915502325911376E-014 -1.857988112197605E-014
  -310.412913606576      -9.615694541805439E-014 -1.045880909786954E-014
  -309.620032601196       9.089707539360489E-014  4.048656067453701E-014
  -308.827151595815      -7.354809031405801E-014 -6.655109809133167E-014
  -308.034270590434       4.646415521233795E-014  8.408261068422718E-014
  -307.241389585053      -1.388571369454041E-014 -8.976702328119707E-014
  -306.448508579672      -1.874117436141951E-014  8.226066378371815E-014
  -305.655627574292       4.572530420995373E-014 -6.259309557767852E-014
  -304.862746568911      -6.220678312548471E-014  3.414599368829995E-014
  -304.069865563530       6.515379827435791E-014 -2.168408401338897E-015
  -303.276984558149      -5.408322591034417E-014 -2.712138590650689E-014
  -302.484103552769       3.134243624309552E-014  4.770925353246271E-014
  -301.691222547388      -1.857189840805873E-015 -5.502777989025370E-014
  -300.898341542007      -2.765636753097162E-014  4.702894592958183E-014
  -300.105460536626       4.991398013100051E-014 -2.485814034522994E-014
  -299.312579531245      -5.852323838352657E-014 -7.043595566706444E-015
  -298.519698525865       4.941782032658638E-014  4.148765382414989E-014
  -297.726817520484      -2.197984105987316E-014 -6.969578181438252E-014
  -296.933936515103      -2.040573016777838E-014  8.290439708159845E-014
  -296.141055509722       7.053787743220554E-014 -7.414866068864759E-014
  -295.348174504342      -1.183755605619127E-013  3.989859355698493E-014
  -294.555293498961       1.527016214297175E-013  1.878332635249655E-014
  -293.762412493580      -1.632244633163573E-013 -9.583319500342533E-014
  -292.969531488199       1.427475475199826E-013  1.806807671012865E-013
  -292.176650482818      -8.897653398254093E-014 -2.596562408219774E-013
  -291.383769477438       5.561382801047262E-015  3.181589978909322E-013
  -290.590888472057       9.790360088493869E-014 -3.432865031679899E-013
  -289.798007466676      -2.070014848724529E-013  3.264860939358768E-013
  -289.005126461295       3.046066982020881E-013 -2.657041187658477E-013
  -288.212245455914      -3.736924195489425E-013  1.665213507499555E-013
  -287.419364450534       4.004110879973288E-013 -4.191844388891004E-014
  -286.626483445153      -3.769412319547365E-013 -8.941821403387473E-014
  -285.833602439772       3.035566357357091E-013  2.060426917799057E-013
  -285.040721434391      -1.894293990140930E-013 -2.874870388565766E-013
  -284.247840429011       5.185341708886509E-014  3.181581428268648E-013
  -283.454959423630       8.615103634042459E-014 -2.906885779033032E-013
  -282.662078418249      -1.995744543396890E-013  2.080740475846583E-013
  -281.869197412868       2.659284186875544E-013 -8.408724415753787E-014
  -281.076316407487      -2.697545026360727E-013 -5.827580344770476E-014
  -280.283435402107       2.062811434806488E-013  1.902205910118718E-013
  -279.490554396726      -8.345563536636928E-014 -2.819957234011376E-013
  -278.697673391345      -7.819197906593435E-014  3.083871541239655E-013
  -277.904792385964       2.480445890426487E-013 -2.539041993318131E-013
  -277.111911380583      -3.900258712941243E-013  1.166615662881034E-013
  -276.319030375203       4.687189952957276E-013  8.988754553534345E-014
  -275.526149369822      -4.560018001203734E-013 -3.378842813550749E-013
  -274.733268364441       3.370361831371114E-013  5.887190948358447E-013
  -273.940387359060      -1.144469642680696E-013 -7.989508604612293E-013
  -273.147506353680      -1.902772944224353E-013  9.275721324717563E-013
  -272.354625348299       5.387342492560767E-013 -9.434073843122323E-013
  -271.561744342918      -8.809055718746212E-013  8.313670180890854E-013
  -270.768863337537       1.163108082747732E-012 -5.964278955078385E-013
  -269.975982332156      -1.337257222643729E-012  2.644949744950292E-013
  -269.183101326776       1.369724419805890E-012  1.203171829717504E-013
  -268.390220321395      -1.248101499545898E-012 -5.019162070817097E-013
  -267.597339316014       9.845721200354362E-013  8.212278607571120E-013
  -266.804458310633      -6.151643730949999E-013 -1.026516100278504E-012
  -266.011577305253       1.948005718016889E-013  1.083133637024898E-012
  -265.218696299872       2.112665327300670E-013 -9.807658428196424E-013
  -264.425815294491      -5.383814777417044E-013  7.366103953423311E-013
  -263.632934289110       7.339917414327756E-013 -3.936370593878805E-013
  -262.840053283729      -7.676749519171391E-013  1.395568149626451E-014
  -262.047172278349       6.377298727973430E-013  3.317638562619106E-013
  -261.254291272968      -3.728626370558668E-013 -5.770822108480972E-013
  -260.461410267587       2.831466117387198E-014  6.725292169272094E-013
  -259.668529262206       3.232166459648152E-013 -5.958872571579045E-013
  -258.875648256826      -6.045001611703955E-013  3.579153855803302E-013
  -258.082767251445       7.483452398518923E-013 -2.128119627752669E-015
  -257.289886246064      -7.111687601261892E-013 -4.017238157667170E-013
  -256.497005240683       4.829031165561052E-013  7.696461080226144E-013
  -255.704124235302      -9.110855167053479E-014 -1.018933226891810E-012
  -254.911243229922      -4.018871445012024E-013  1.084483609396224E-012
  -254.118362224541       9.087495122681377E-013 -9.327858124979598E-013
  -253.325481219160      -1.332407528051746E-012  5.706892438941487E-013
  -252.532600213779       1.584291960165140E-012 -4.688806780995716E-014
  -251.739719208398      -1.602238563360029E-012 -5.546644166173311E-013
  -250.946838203018       1.364545846983346E-012  1.128666336494600E-012
  -250.153957197637      -8.971274707171091E-013 -1.567493501459263E-012
  -249.361076192256       2.718060579740351E-013  1.782013133209249E-012
  -248.568195186875       4.045922746531875E-013 -1.720289659436746E-012
  -247.775314181495      -1.008867088592634E-012  1.380394730449953E-012
  -246.982433176114       1.424676539094299E-012 -8.143580339773546E-013
  -246.189552170733      -1.566124185436668E-012  1.217672709224511E-013
  -245.396671165352       1.397074408553095E-012  5.665694063245061E-013
  -244.603790159971      -9.420607545593001E-013 -1.112488714497891E-012
  -243.810909154591       2.859734058521504E-013  1.397765358975895E-012
  -243.018028149210       4.383185485369871E-013 -1.349714030572866E-012
  -242.225147143829      -1.072960820602883E-012  9.598883389754005E-013
  -241.432266138448       1.465073055222518E-012 -2.915879624153779E-013
  -240.639385133067      -1.498349444053896E-012 -5.262760193339467E-013
  -239.846504127687       1.120201727410449E-012  1.318939668246744E-012
  -239.053623122306      -3.586952369711537E-013 -1.896484515298479E-012
  -238.260742116925      -6.749690076800544E-013  2.090431314748344E-012
  -237.467861111544       1.800210018791859E-012 -1.789614137822163E-012
  -236.674980106164      -2.795813026605674E-012  9.683027136040518E-013
  -235.882099100783       3.439358739158255E-012  2.995616593292730E-013
  -235.089218095402      -3.550544984261495E-012 -1.844026267647730E-012
  -234.296337090021       3.030272169377568E-012  3.421655945535309E-012
  -233.503456084640      -1.887568674921454E-012 -4.754423121802401E-012
  -232.710575079260       2.482499605810139E-013  5.579071070736462E-012
  -231.917694073879       1.657704272075781E-012 -5.698391108607491E-012
  -231.124813068498      -3.529337357412340E-012  5.024564143687269E-012
  -230.331932063117       5.044012845843981E-012 -3.605371720437282E-012
  -229.539051057737      -5.915120963931907E-012  1.626788953014796E-012
  -228.746170052356       5.948217548241431E-012  6.102982276123644E-013
  -227.953289046975      -5.084890494810931E-012 -2.736683458630675E-012
  -227.160408041594       3.424943155456338E-012  4.377671910094893E-012
  -226.367527036213      -1.220829858602104E-012 -5.221659828160623E-012
  -225.574646030833      -1.156854939112452E-012  5.082201560987354E-012
  -224.781765025452       3.278567247509473E-012 -3.941627462970740E-012
  -223.988884020071      -4.730411151375198E-012  1.966825089630142E-012
  -223.196003014690       5.191308657718273E-012  5.077056850159678E-013
  -222.403122009309      -4.498541295878135E-012 -3.028663381519870E-012
  -221.610241003929       2.688681066827723E-012  5.097769971661146E-012
  -220.817359998548      -4.662868455927651E-015 -6.258661056263926E-012
  -220.024478993167      -3.134537864193777E-012  6.181729581964849E-012
  -219.231597987786       6.198407339290436E-012 -4.731320480669040E-012
  -218.438716982406      -8.633748152475791E-012  2.002109778596313E-012
  -217.645835977025       9.962803921940016E-012  1.683464725157833E-012
  -216.852954971644      -9.872745968601094E-012 -5.818136241706286E-012
  -216.060073966263       8.279027056813787E-012  9.787437299698892E-012
  -215.267192960882      -5.349179733027648E-012 -1.297022431557631E-011
  -214.474311955502       1.481089578389441E-012  1.484593137673004E-011
  -213.681430950121       2.760890591783316E-012 -1.508999813985407E-011
  -212.888549944740      -6.740134949979214E-012  1.363885644158320E-011
  -212.095668939359       9.855345736845572E-012 -1.070934002827591E-011
  -211.302787933979      -1.164350316875928E-011  6.765521365995843E-012
  -210.509906928598       1.186125826633119E-011 -2.437539472367834E-012
  -209.717025923217      -1.053022078128247E-011 -1.591970636956474E-012
  -208.924144917836       7.936002169942515E-012  4.711508154034299E-012
  -208.131263912455      -4.578396484374124E-012 -6.490774868590971E-012
  -207.338382907075       1.079807790233417E-012  6.756702157079672E-012
  -206.545501901694       1.931721431118243E-012 -5.621249580490870E-012
  -205.752620896313      -3.942456388008101E-012  3.455359235657392E-012
  -204.959739890932       4.652098767964173E-012 -8.132874221414240E-013
  -204.166858885551      -4.031881062431922E-012 -1.678921567013470E-012
  -203.373977880171       2.329167790113867E-012  3.449683963154397E-012
  -202.581096874790      -1.655106651352853E-014 -4.098166828282722E-012
  -201.788215869409      -2.305438165818458E-012  3.477172050772904E-012
  -200.995334864028       4.033251344379391E-012 -1.725163956356720E-012
  -200.202453858648      -4.687983362672125E-012 -7.602531940368894E-013
  -199.409572853267       4.019608848795378E-012  3.403413849418623E-012
  -198.616691847886      -2.065679820526196E-012 -5.570913532118139E-012
  -197.823810842505      -8.488773609397823E-013  6.707235509580756E-012
  -197.030929837124       4.172415492633618E-012 -6.457685411484477E-012
  -196.238048831744      -7.236720241712016E-012  4.752207836504115E-012
  -195.445167826363       9.395132869106577E-012 -1.830866922635175E-012
  -194.652286820982      -1.016066803545156E-011 -1.796505563699888E-012
  -193.859405815601       9.315164026090911E-012  5.449991404238663E-012
  -193.066524810221      -6.965240134149744E-012 -8.418905604381225E-012
  -192.273643804840       3.530721519209748E-012  1.011188520566590E-011
  -191.480762799459       3.351452659975836E-013 -1.018589396659902E-011
  -190.687881794078      -3.879364135246740E-012  8.625977070876303E-012
  -189.895000788697       6.409543588461058E-012 -5.757018331737849E-012
  -189.102119783317      -7.446400284090831E-012  2.182230458276642E-012
  -188.309238777936       6.834167635861903E-012  1.341568995786906E-012
  -187.516357772555      -4.782637579426093E-012 -4.067567789264500E-012
  -186.723476767174       1.828576906338687E-012  5.427126396518226E-012
  -185.930595761794       1.278491972218132E-012 -5.165117945403217E-012
  -185.137714756413      -3.744156748657615E-012  3.410178613712102E-012
  -184.344833751032       4.915514164439658E-012 -6.602912720466183E-013
  -183.551952745651      -4.444814872084608E-012 -2.318002858276485E-012
  -182.759071740270       2.391650754695200E-012  4.659073221014216E-012
  -181.966190734890       7.636544261125811E-013 -5.601953323956427E-012
  -181.173309729509      -4.204559858824635E-012  4.683861706001072E-012
  -180.380428724128       6.948315078098332E-012 -1.878144170360555E-012
  -179.587547718747      -8.068798525753427E-012 -2.359395999152009E-012
  -178.794666713366       6.925161310001380E-012  7.153676696277819E-012
  -178.001785707986      -3.344392626170261E-012 -1.137732334700373E-011
  -177.208904702605      -2.287689392864597E-012  1.389154480619563E-011
  -176.416023697224       9.055552699492126E-012 -1.381157244750410E-011
  -175.623142691843      -1.566717632984121E-011  1.073764749004088E-011
  -174.830261686463       2.070801021935078E-011 -4.895754159180387E-012
  -174.037380681082      -2.294753091377770E-011 -2.851286964240126E-012
  -173.244499675701       2.163357029847265E-011  1.113526165127451E-011
  -172.451618670320      -1.670581006862624E-011 -1.833867156963969E-011
  -171.658737664939       8.871863549119223E-012  2.292909619676918E-011
  -170.865856659559       4.836934970729594E-013 -2.380462496248584E-011
  -170.072975654178      -9.550679726219894E-012  2.057458173378175E-011
  -169.280094648797       1.646123523499333E-011 -1.370659888627852E-011
  -168.487213643416      -1.970101009867803E-011  4.494244396899463E-012
  -167.694332638036       1.847504427795073E-011  5.164288156520665E-012
  -166.901451632655      -1.294268220267023E-011 -1.314370300578084E-011
  -166.108570627274       4.257765171214204E-012  1.755402025517684E-011
  -165.315689621893       5.611738172424749E-012 -1.719088936861959E-011
  -164.522808616512      -1.426339350749361E-011  1.187092747958227E-011
  -163.729927611132       1.937134798753536E-011 -2.566082767097485E-012
  -162.937046605751      -1.922524008666015E-011 -8.711253288795791E-012
  -162.144165600370       1.317791183914352E-011  1.926877545026584E-011
  -161.351284594989      -1.892761544177574E-012 -2.628122670774152E-011
  -160.558403589608      -1.268297143272634E-011  2.741748139682234E-011
  -159.765522584228       2.763729610495800E-011 -2.141420263895231E-011
  -158.972641578847      -3.965849866154745E-011  8.462977797905169E-012
  -158.179760573466       4.573938466731305E-011  9.691915702367732E-012
  -157.386879568085      -4.387254522437126E-011 -2.999243883443019E-011
  -156.593998562705       3.357773199250581E-011  4.861926887851600E-011
  -155.801117557324      -1.612847389719689E-011 -6.176295663227581E-011
  -155.008236551943      -5.595208529006416E-012  6.646029376407753E-011
  -154.215355546562       2.762093268412922E-011 -6.131077315046979E-011
  -153.422474541181      -4.567627374953153E-011  4.689567704261496E-011
  -152.629593535801       5.610474656658505E-011 -2.577559606036029E-011
  -151.836712530420      -5.671192321912916E-011  2.033703457278048E-012
  -151.043831525039       4.734445279684133E-011  1.956077700570863E-011
  -150.250950519658      -3.004395923671869E-011 -3.460005038596243E-011
  -149.458069514277       8.700453307927464E-012  4.006774100854247E-011
  -148.665188508897       1.175774689694751E-011 -3.511077821635864E-011
  -147.872307503516      -2.648475248129880E-011  2.135257927265307E-011
  -147.079426498135       3.190597021570743E-011 -2.635778703614497E-012
  -146.286545492754      -2.669332852661486E-011 -1.579359881019143E-011
  -145.493664487374       1.226988027651473E-011  2.851475393879406E-011
  -144.700783481993       7.324459645858674E-012 -3.131428725218737E-011
  -143.907902476612      -2.623628627014344E-011  2.239913401804848E-011
  -143.115021471231       3.814178320936268E-011 -3.124581057077933E-012
  -142.322140465850      -3.785450789678087E-011 -2.199437942925545E-011
  -141.529259460470       2.282775716496263E-011  4.607097546199945E-011
  -140.736378455089       5.834591343951836E-012 -6.133070658786315E-011
  -139.943497449708      -4.316843301383314E-011  6.100649906249079E-011
  -139.150616444327       8.108900672906994E-011 -4.122602854704178E-011
  -138.357735438947      -1.100096379461814E-010  2.423521092662345E-012
  -137.564854433566       1.210421554301745E-010  5.013437111455751E-011
  -136.771973428185      -1.083014719074465E-010 -1.069566319433828E-010
  -135.979092422804       7.075673590737371E-011  1.560733313738897E-010
  -135.186211417423      -1.312143219317114E-011 -1.856381217214490E-010
  -134.393330412043      -5.454978934373436E-011  1.868470046225225E-010
  -133.600449406662       1.186229689664315E-010 -1.564724105073319E-010
  -132.807568401281      -1.647584114067368E-010  9.831828493403137E-011
  -132.014687395900       1.813435183326183E-010 -2.309505577752339E-011
  -131.221806390520      -1.627037179638075E-010 -5.344707714520177E-011
  -130.428925385139       1.112398755299682E-010  1.138781170811654E-010
  -129.636044379758      -3.778441535983854E-011 -1.432968405295774E-010
  -128.843163374377      -4.017737619658941E-011  1.334459999793736E-010
  -128.050282368996       1.022764278421050E-010 -8.567642888549381E-011
  -127.257401363616      -1.303424042082063E-010  1.182835350068994E-011
  -126.464520358235       1.136830189171689E-010  6.752235227239757E-011
  -125.671639352854      -5.321744303304585E-011 -1.274246511758253E-010
  -124.878758347473      -3.680345544408643E-011  1.448221999127712E-010
  -124.085877342092       1.303512802054303E-010 -1.054307591695035E-010
  -123.292996336712      -1.946198672143567E-010  9.542832088115933E-012
  -122.500115331331       1.977915091578579E-010  1.249419545338480E-010
  -121.707234325950      -1.180638794080332E-010 -2.635614053562452E-010
  -120.914353320569      -4.816126355854898E-011  3.609167255957668E-010
  -120.121472315189       2.811965134228534E-010 -3.703281634648738E-010
  -119.328591309808      -5.379901231640041E-010  2.558597198309412E-010
  -118.535710304427       7.580231830058668E-010 -4.149502045349116E-012
  -117.742829299046      -8.748200142872027E-010 -3.669684502805337E-010
  -116.949948293665       8.312390165202684E-010  8.058765905993059E-010
  -116.157067288285      -5.954711095186886E-010 -1.232522843383620E-009
  -115.364186282904       1.739962651934891E-010  1.551986278408267E-009
  -114.571305277523       3.821745113570700E-010 -1.674464522565722E-009
  -113.778424272142      -9.807684488635478E-010  1.537862500953421E-009
  -112.985543266762       1.502169828333146E-009 -1.127813512943392E-009
  -112.192662261381      -1.822792445509627E-009  4.897531859767772E-010
  -111.399781256000       1.844069792826925E-009  2.712843482965246E-010
  -110.606900250619      -1.520963305921806E-009 -1.005309244691726E-009
  -109.814019245238       8.827586340143505E-010  1.545610383344162E-009
  -109.021138239858      -3.944090276513673E-011 -1.746342731064753E-009
  -108.228257234477      -8.307630451031620E-010  1.522140434001334E-009
  -107.435376229096       1.513291411246066E-009 -8.804651739765529E-010
  -106.642495223715      -1.804567042394991E-009 -6.270323195288010E-011
  -105.849614218334       1.566126973263538E-009  1.091054369932873E-009
  -105.056733212954      -7.735781208744589E-010 -1.922857227480189E-009
  -104.263852207573      -4.527603145872184E-010  2.269480571679791E-009
  -103.470971202192       1.846879696106390E-009 -1.907999126278802E-009
  -102.678090196811      -3.032232867102355E-009  7.529464814645503E-010
  -101.885209191431       3.592036351102999E-009  1.090634581955281E-009
  -101.092328186050      -3.165026237200250E-009 -3.309883715026046E-009
  -100.299447180669       1.548791027908418E-009  5.414482935700458E-009
  -99.5065661752882       1.212788403129037E-009 -6.817516846809619E-009
  -98.7136851699074      -4.782645640667118E-009  6.957947406223242E-009
  -97.9208041645266       8.544451962801902E-009 -5.443796308229976E-009
  -97.1279231591459      -1.168750433149132E-008  2.185723173457837E-009
  -96.3350421537651       1.335788247060099E-008  2.513269260030739E-009
  -95.5421611483843      -1.285395396974265E-008 -7.942878669635986E-009
  -94.7492801430035       9.828388771764246E-009  1.306500595967309E-008
  -93.9563991376227      -4.448732531029344E-009 -1.668954381013164E-008
  -93.1635181322419      -2.531756658369230E-009  1.772603406197360E-008
  -92.3706371268612       9.829929831017781E-009 -1.546798404268039E-008
  -91.5777561214804      -1.582972863468192E-008  9.848559693847520E-009
  -90.7848751160996       1.890443161452668E-008 -1.598791258440517E-009
  -89.9919941107188      -1.781501219958348E-008 -7.753177859010460E-009
  -89.1991131053380       1.210614107558952E-008  1.607929833435491E-008
  -88.4062320999573      -2.403617401196639E-009 -2.104433750832009E-008
  -87.6133510945765      -9.482314095020633E-009  2.064613109672631E-008
  -86.8204700891957       2.072002329600478E-008 -1.380875174769535E-008
  -86.0275890838149      -2.791243152682928E-008  8.986566906485097E-010
  -85.2347080784341       2.780943833961023E-008  1.597940926388972E-008
  -84.4418270730533      -1.817096126026499E-008 -3.303307556319693E-008
  -83.6489460676726      -1.386953147748677E-009  4.525567051487694E-008
  -82.8560650622918       2.876834879626035E-008 -4.731850456051469E-008
  -82.0631840569110      -5.920103584226101E-008  3.478033294778096E-008
  -81.2703030515302       8.562527023392062E-008 -5.413854527272240E-009
  -80.4774220461494      -9.972932381750529E-008 -3.962754850274051E-008
  -79.6845410407687       9.355999628021345E-008  9.511270667409987E-008
  -78.8916600353879      -6.148546469302638E-008 -1.517876086795688E-007
  -78.0987790300071       2.151450220403102E-009  1.973686817750317E-007
  -77.3058980246263       8.001523611720826E-008 -2.184991495492626E-007
  -76.5130170192455      -1.742088284591803E-007  2.034830134798598E-007
  -75.7201360138647       2.639163905378546E-007 -1.453854410996642E-007
  -74.9272550084840      -3.290385063350800E-007  4.489640154219635E-008
  -74.1343740031032       3.493733398466763E-007  8.774749629325311E-008
  -73.3414929977224      -3.090644830981470E-007 -2.324546960535576E-007
  -72.5486119923416       2.013004417298986E-007  3.610678044019737E-007
  -71.7557309869608      -3.231205973026141E-008 -4.414016916115029E-007
  -70.9628499815800      -1.763820798005799E-007  4.432426825997336E-007
  -70.1699689761993       3.884252232464838E-007 -3.455378681474649E-007
  -69.3770879708185      -5.563752096467251E-007  1.435641821663553E-007
  -68.5842069654377       6.288251885164196E-007  1.454279964480424E-007
  -67.7913259600569      -5.602702939094746E-007 -4.796566510190488E-007
  -66.9984449546761       3.223764382483644E-007  7.946417653919069E-007
  -66.2055639492953       8.531067271011651E-008 -1.010156230785530E-006
  -65.4126829439146      -6.275438158501009E-007  1.042155405465185E-006
  -64.6198019385338       1.230749198814660E-006 -8.185126525633842E-007
  -63.8269209331530      -1.787420548507840E-006  2.963576621167556E-007
  -63.0340399277722       2.168385251871203E-006  5.220021913460369E-007
  -62.2411589223914      -2.242417396294672E-006 -1.577991909433206E-006
  -61.4482779170106       1.901057140105380E-006  2.753742979752248E-006
  -60.6553969116299      -1.084915962414336E-006 -3.879550163819952E-006
  -59.8625159062491      -1.934292793750901E-007  4.752837289180976E-006
  -59.0696349008683       1.835218941817521E-006 -5.167805851746789E-006
  -58.2767538954875      -3.654510282659077E-006  4.952757193363337E-006
  -57.4838728901067       5.393153423550075E-006 -4.009768770974800E-006
  -56.6909918847260      -6.752049542353656E-006  2.349434526153396E-006
  -55.8981108793452       7.436313040085547E-006 -1.125169719821888E-007
  -55.1052298739644      -7.209244412262787E-006 -2.428714476624957E-006
  -54.3123488685836       5.947382413189126E-006  4.893893106636243E-006
  -53.5194678632028      -3.686780603713414E-006 -6.843058217779577E-006
  -52.7265868578220       6.498601925961364E-007  7.845976752449667E-006
  -51.9337058524413       2.756535147123318E-006 -7.563500259156391E-006
  -51.1408248470605      -5.977696314669041E-006  5.828389992152842E-006
  -50.3479438416797       8.382549619318150E-006 -2.710704804615448E-006
  -49.5550628362989      -9.363823321835735E-006 -1.447288751670056E-006
  -48.7621818309181       8.453930239034074E-006  6.039112519246385E-006
  -47.9693008255373      -5.438105685753123E-006 -1.025194488372806E-005
  -47.1764198201566       4.432196285144816E-007  1.317347278494550E-005
  -46.3835388147758       6.019010730729235E-006 -1.393761798661697E-005
  -45.5906578093950      -1.307132654143494E-005  1.188992412132404E-005
  -44.7977768040142       1.956125811060059E-005 -6.746139690141242E-006
  -44.0048957986334      -2.421924923653407E-005 -1.286188450047590E-006
  -43.2120147932526       2.586779091427989E-005  1.145222716993880E-005
  -42.4191337878719      -2.365168425567673E-005 -2.248320248919021E-005
  -41.6262527824911       1.724978709625910E-005  3.272988776885710E-005
  -40.8333717771103      -7.025147291005475E-006 -4.039195721068184E-005
  -40.0404907717295      -5.924723409750675E-006  4.382032704177661E-005
  -39.2476097663487       1.984289171683261E-005 -4.184990704027137E-005
  -38.4547287609680      -3.252089316993582E-005  3.410340359474054E-005
  -37.6618477555872       4.162688174885673E-005 -2.119928919930822E-005
  -36.8689667502064      -4.511983705295259E-005  4.804174694849205E-006
  -36.0760857448256       4.169260445832049E-005  1.250843845563393E-005
  -35.2832047394448      -3.116589236107300E-005 -2.760005117995857E-005
  -34.4903237340640       1.474496883591850E-005  3.728233165287920E-005
  -33.6974427286833       4.942339839541782E-006 -3.894384866757392E-005
  -32.9045617233025      -2.408194362983842E-005  3.119556513391514E-005
  -32.1116807179217       3.819819952462178E-005 -1.441977322189667E-005
  -31.3187997125409      -4.292993564315128E-005 -8.899934936351114E-006
  -30.5259187071601       3.496704143632587E-005  3.417615541890572E-005
  -29.7330377017793      -1.300934869799562E-005 -5.511398686059206E-005
  -28.9401566963986      -2.142275666527065E-005  6.451916802861789E-005
  -28.1472756910178       6.350532561161326E-005 -5.545758763186955E-005
  -27.3543946856370      -1.051145815820978E-004  2.262709932936704E-005
  -26.5615136802562       1.354266774711138E-004  3.626827071452662E-005
  -25.7686326748754      -1.421484999953776E-004 -1.193993838511606E-004
  -24.9757516694946       1.133264677088457E-004  2.202130455769217E-004
  -24.1828706641139      -3.958900735990026E-005 -3.275647878604668E-004
  -23.3899896587331      -8.341692224668916E-005  4.266668430910065E-004
  -22.5971086533523       2.527574767528668E-004 -5.007430823669655E-004
  -21.8042276479715      -4.566487458086619E-004  5.331076234278250E-004
  -21.0113466425907       6.743004099771865E-004 -5.093787869643229E-004
  -20.2184656372100      -8.777818015976443E-004  4.197859416140267E-004
  -19.4255846318292       1.035927926383632E-003 -2.617719695769549E-004
  -18.6327036264484      -1.119393081514222E-003  4.282780422783237E-005
  -17.8398226210676       1.105524769465533E-003  2.173398206188165E-004
  -17.0469416156868      -9.822526672118451E-004 -4.867713813937328E-004
  -16.2540606103060       7.510167348750402E-004  7.243008258129034E-004
  -15.4611796049253      -4.289047855974569E-004 -8.854274332358908E-004
  -14.6682985995445       4.962627929951731E-005  9.298839746144004E-004
  -13.8754175941637       3.375003578856935E-004 -8.296239925187780E-004
  -13.0825365887829      -6.712540241379449E-004  5.761394044806436E-004
  -12.2896555834021       8.850911883318574E-004 -1.861578091228945E-004
  -11.4967745780213      -9.161706508314714E-004 -2.951661648812275E-004
  -10.7038935726406       7.158784774803670E-004  7.943099826292736E-004
  -9.91101256725978      -2.605302321140248E-004 -1.213118440090745E-003
  -9.11813156187900      -4.393132663927461E-004  1.436137073757949E-003
  -8.32525055649822       1.332593548539522E-003 -1.340832835277709E-003
  -7.53236955111743      -2.326274503731081E-003  8.093311668929614E-004
  -6.73948854573665       3.290409715438961E-003  2.601987954235336E-004
  -5.94660754035587      -4.071778726158512E-003 -1.944316381154899E-003
  -5.15372653497509       4.518449382728594E-003  4.287636849937061E-003
  -4.36084552959430      -4.516924577508141E-003 -7.295282251744483E-003
  -3.56796452421352       4.038480100044116E-003  1.091487415765496E-002
  -2.77508351883274      -3.177304539019641E-003 -1.499548724229235E-002
  -1.98220251345196       2.143073822243473E-003  1.922543438101451E-002
  -1.18932150807117      -1.170554860374226E-003 -2.309302913790117E-002
 -0.396440502690391       3.671777552591421E-004  2.595279051464019E-002
  0.396440502690391       3.671777552591421E-004 -2.595279051464019E-002
   1.18932150807117      -1.170554860374226E-003  2.309302913790117E-002
   1.98220251345196       2.143073822243473E-003 -1.922543438101451E-002
   2.77508351883274      -3.177304539019641E-003  1.499548724229235E-002
   3.56796452421352       4.038480100044116E-003 -1.091487415765496E-002
   4.36084552959430      -4.516924577508141E-003  7.295282251744483E-003
   5.15372653497509       4.518449382728594E-003 -4.287636849937061E-003
   5.94660754035587      -4.071778726158512E-003  1.944316381154899E-003
   6.73948854573665       3.290409715438961E-003 -2.601987954235336E-004
   7.53236955111743      -2.326274503731081E-003 -8.093311668929614E-004
   8.32525055649822       1.332593548539522E-003  1.340832835277709E-003
   9.11813156187900      -4.393132663927461E-004 -1.436137073757949E-003
   9.91101256725978      -2.605302321140248E-004  1.213118440090745E-003
   10.7038935726406       7.158784774803670E-004 -7.943099826292736E-004
   11.4967745780213      -9.161706508314714E-004  2.951661648812275E-004
   12.2896555834021       8.850911883318574E-004  1.861578091228945E-004
   13.0825365887829      -6.712540241379449E-004 -5.761394044806436E-004
   13.8754175941637       3.375003578856935E-004  8.296239925187780E-004
   14.6682985995445       4.962627929951731E-005 -9.298839746144004E-004
   15.4611796049253      -4.289047855974569E-004  8.854274332358908E-004
   16.2540606103060       7.510167348750402E-004 -7.243008258129034E-004
   17.0469416156868      -9.822526672118451E-004  4.867713813937328E-004
   17.8398226210676       1.105524769465533E-003 -2.173398206188165E-004
   18.6327036264484      -1.119393081514222E-003 -4.282780422783237E-005
   19.4255846318292       1.035927926383632E-003  2.617719695769549E-004
   20.2184656372100      -8.777818015976443E-004 -4.197859416140267E-004
   21.0113466425907       6.743004099771865E-004  5.093787869643229E-004
   21.8042276479715      -4.566487458086619E-004 -5.331076234278250E-004
   22.5971086533523       2.527574767528668E-004  5.007430823669655E-004
   23.3899896587331      -8.341692224668916E-005 -4.266668430910065E-004
   24.1828706641139      -3.958900735990026E-005  3.275647878604668E-004
   24.9757516694946       1.133264677088457E-004 -2.202130455769217E-004
   25.7686326748754      -1.421484999953776E-004  1.193993838511606E-004
   26.5615136802562       1.354266774711138E-004 -3.626827071452662E-005
   27.3543946856370      -1.051145815820978E-004 -2.262709932936704E-005
   28.1472756910178       6.350532561161326E-005  5.545758763186955E-005
   28.9401566963986      -2.142275666527065E-005 -6.451916802861789E-005
   29.7330377017793      -1.300934869799562E-005  5.511398686059206E-005
   30.5259187071601       3.496704143632587E-005 -3.417615541890572E-005
   31.3187997125409      -4.292993564315128E-005  8.899934936351114E-006
   32.1116807179217       3.819819952462178E-005  1.441977322189667E-005
   32.9045617233025      -2.408194362983842E-005 -3.119556513391514E-005
   33.6974427286833       4.942339839541782E-006  3.894384866757392E-005
   34.4903237340640       1.474496883591850E-005 -3.728233165287920E-005
   35.2832047394448      -3.116589236107300E-005  2.760005117995857E-005
   36.0760857448256       4.169260445832049E-005 -1.250843845563393E-005
   36.8689667502064      -4.511983705295259E-005 -4.804174694849205E-006
   37.6618477555872       4.162688174885673E-005  2.119928919930822E-005
   38.4547287609680      -3.252089316993582E-005 -3.410340359474054E-005
   39.2476097663487       1.984289171683261E-005  4.184990704027137E-005
   40.0404907717295      -5.924723409750675E-006 -4.382032704177661E-005
   40.8333717771103      -7.025147291005475E-006  4.039195721068184E-005
   41.6262527824911       1.724978709625910E-005 -3.272988776885710E-005
   42.4191337878719      -2.365168425567673E-005  2.248320248919021E-005
   43.2120147932526       2.586779091427989E-005 -1.145222716993880E-005
   44.0048957986334      -2.421924923653407E-005  1.286188450047590E-006
   44.7977768040142       1.956125811060059E-005  6.746139690141242E-006
   45.5906578093950      -1.307132654143494E-005 -1.188992412132404E-005
   46.3835388147758       6.019010730729235E-006  1.393761798661697E-005
   47.1764198201566       4.432196285144816E-007 -1.317347278494550E-005
   47.9693008255373      -5.438105685753123E-006  1.025194488372806E-005
   48.7621818309181       8.453930239034074E-006 -6.039112519246385E-006
   49.5550628362989      -9.363823321835735E-006  1.447288751670056E-006
   50.3479438416797       8.382549619318150E-006  2.710704804615448E-006
   51.1408248470605      -5.977696314669041E-006 -5.828389992152842E-006
   51.9337058524412       2.756535147123318E-006  7.563500259156391E-006
   52.7265868578220       6.498601925961364E-007 -7.845976752449667E-006
   53.5194678632028      -3.686780603713414E-006  6.843058217779577E-006
   54.3123488685836       5.947382413189126E-006 -4.893893106636243E-006
   55.1052298739644      -7.209244412262787E-006  2.428714476624957E-006
   55.8981108793452       7.436313040085547E-006  1.125169719821888E-007
   56.6909918847259      -6.752049542353656E-006 -2.349434526153396E-006
   57.4838728901067       5.393153423550075E-006  4.009768770974800E-006
   58.2767538954875      -3.654510282659077E-006 -4.952757193363337E-006
   59.0696349008683       1.835218941817521E-006  5.167805851746789E-006
   59.8625159062491      -1.934292793750901E-007 -4.752837289180976E-006
   60.6553969116299      -1.084915962414336E-006  3.879550163819952E-006
   61.4482779170106       1.901057140105380E-006 -2.753742979752248E-006
   62.2411589223914      -2.242417396294672E-006  1.577991909433206E-006
   63.0340399277722       2.168385251871203E-006 -5.220021913460369E-007
   63.8269209331530      -1.787420548507840E-006 -2.963576621167556E-007
   64.6198019385338       1.230749198814660E-006  8.185126525633842E-007
   65.4126829439146      -6.275438158501009E-007 -1.042155405465185E-006
   66.2055639492953       8.531067271011651E-008  1.010156230785530E-006
   66.9984449546761       3.223764382483644E-007 -7.946417653919069E-007
   67.7913259600569      -5.602702939094746E-007  4.796566510190488E-007
   68.5842069654377       6.288251885164196E-007 -1.454279964480424E-007
   69.3770879708185      -5.563752096467251E-007 -1.435641821663553E-007
   70.1699689761992       3.884252232464838E-007  3.455378681474649E-007
   70.9628499815800      -1.763820798005799E-007 -4.432426825997336E-007
   71.7557309869608      -3.231205973026141E-008  4.414016916115029E-007
   72.5486119923416       2.013004417298986E-007 -3.610678044019737E-007
   73.3414929977224      -3.090644830981470E-007  2.324546960535576E-007
   74.1343740031032       3.493733398466763E-007 -8.774749629325311E-008
   74.9272550084840      -3.290385063350800E-007 -4.489640154219635E-008
   75.7201360138647       2.639163905378546E-007  1.453854410996642E-007
   76.5130170192455      -1.742088284591803E-007 -2.034830134798598E-007
   77.3058980246263       8.001523611720826E-008  2.184991495492626E-007
   78.0987790300071       2.151450220403102E-009 -1.973686817750317E-007
   78.8916600353879      -6.148546469302638E-008  1.517876086795688E-007
   79.6845410407687       9.355999628021345E-008 -9.511270667409987E-008
   80.4774220461494      -9.972932381750529E-008  3.962754850274051E-008
   81.2703030515302       8.562527023392062E-008  5.413854527272240E-009
   82.0631840569110      -5.920103584226101E-008 -3.478033294778096E-008
   82.8560650622918       2.876834879626035E-008  4.731850456051469E-008
   83.6489460676726      -1.386953147748677E-009 -4.525567051487694E-008
   84.4418270730533      -1.817096126026499E-008  3.303307556319693E-008
   85.2347080784341       2.780943833961023E-008 -1.597940926388972E-008
   86.0275890838149      -2.791243152682928E-008 -8.986566906485097E-010
   86.8204700891957       2.072002329600478E-008  1.380875174769535E-008
   87.6133510945765      -9.482314095020633E-009 -2.064613109672631E-008
   88.4062320999573      -2.403617401196639E-009  2.104433750832009E-008
   89.1991131053380       1.210614107558952E-008 -1.607929833435491E-008
   89.9919941107188      -1.781501219958348E-008  7.753177859010460E-009
   90.7848751160996       1.890443161452668E-008  1.598791258440517E-009
   91.5777561214804      -1.582972863468192E-008 -9.848559693847520E-009
   92.3706371268612       9.829929831017781E-009  1.546798404268039E-008
   93.1635181322419      -2.531756658369230E-009 -1.772603406197360E-008
   93.9563991376227      -4.448732531029344E-009  1.668954381013164E-008
   94.7492801430035       9.828388771764246E-009 -1.306500595967309E-008
   95.5421611483843      -1.285395396974265E-008  7.942878669635986E-009
   96.3350421537651       1.335788247060099E-008 -2.513269260030739E-009
   97.1279231591459      -1.168750433149132E-008 -2.185723173457837E-009
   97.9208041645266       8.544451962801902E-009  5.443796308229976E-009
   98.7136851699074      -4.782645640667118E-009 -6.957947406223242E-009
   99.5065661752882       1.212788403129037E-009  6.817516846809619E-009
   100.299447180669       1.548791027908418E-009 -5.414482935700458E-009
   101.092328186050      -3.165026237200250E-009  3.309883715026046E-009
   101.885209191431       3.592036351102999E-009 -1.090634581955281E-009
   102.678090196811      -3.032232867102355E-009 -7.529464814645503E-010
   103.470971202192       1.846879696106390E-009  1.907999126278802E-009
   104.263852207573      -4.527603145872184E-010 -2.269480571679791E-009
   105.056733212954      -7.735781208744589E-010  1.922857227480189E-009
   105.849614218334       1.566126973263538E-009 -1.091054369932873E-009
   106.642495223715      -1.804567042394991E-009  6.270323195288010E-011
   107.435376229096       1.513291411246066E-009  8.804651739765529E-010
   108.228257234477      -8.307630451031620E-010 -1.522140434001334E-009
   109.021138239858      -3.944090276513673E-011  1.746342731064753E-009
   109.814019245238       8.827586340143505E-010 -1.545610383344162E-009
   110.606900250619      -1.520963305921806E-009  1.005309244691726E-009
   111.399781256000       1.844069792826925E-009 -2.712843482965246E-010
   112.192662261381      -1.822792445509627E-009 -4.897531859767772E-010
   112.985543266762       1.502169828333146E-009  1.127813512943392E-009
   113.778424272142      -9.807684488635478E-010 -1.537862500953421E-009
   114.571305277523       3.821745113570700E-010  1.674464522565722E-009
   115.364186282904       1.739962651934891E-010 -1.551986278408267E-009
   116.157067288285      -5.954711095186886E-010  1.232522843383620E-009
   116.949948293665       8.312390165202684E-010 -8.058765905993059E-010
   117.742829299046      -8.748200142872027E-010  3.669684502805337E-010
   118.535710304427       7.580231830058668E-010  4.149502045349116E-012
   119.328591309808      -5.379901231640041E-010 -2.558597198309412E-010
   120.121472315189       2.811965134228534E-010  3.703281634648738E-010
   120.914353320569      -4.816126355854898E-011 -3.609167255957668E-010
   121.707234325950      -1.180638794080332E-010  2.635614053562452E-010
   122.500115331331       1.977915091578579E-010 -1.249419545338480E-010
   123.292996336712      -1.946198672143567E-010 -9.542832088115933E-012
   124.085877342092       1.303512802054303E-010  1.054307591695035E-010
   124.878758347473      -3.680345544408643E-011 -1.448221999127712E-010
   125.671639352854      -5.321744303304585E-011  1.274246511758253E-010
   126.464520358235       1.136830189171689E-010 -6.752235227239757E-011
   127.257401363616      -1.303424042082063E-010 -1.182835350068994E-011
   128.050282368996       1.022764278421050E-010  8.567642888549381E-011
   128.843163374377      -4.017737619658941E-011 -1.334459999793736E-010
   129.636044379758      -3.778441535983854E-011  1.432968405295774E-010
   130.428925385139       1.112398755299682E-010 -1.138781170811654E-010
   131.221806390520      -1.627037179638075E-010  5.344707714520177E-011
   132.014687395900       1.813435183326183E-010  2.309505577752339E-011
   132.807568401281      -1.647584114067368E-010 -9.831828493403137E-011
   133.600449406662       1.186229689664315E-010  1.564724105073319E-010
   134.393330412043      -5.454978934373436E-011 -1.868470046225225E-010
   135.186211417423      -1.312143219317114E-011  1.856381217214490E-010
   135.979092422804       7.075673590737371E-011 -1.560733313738897E-010
   136.771973428185      -1.083014719074465E-010  1.069566319433828E-010
   137.564854433566       1.210421554301745E-010 -5.013437111455751E-011
   138.357735438947      -1.100096379461814E-010 -2.423521092662345E-012
   139.150616444327       8.108900672906994E-011  4.122602854704178E-011
   139.943497449708      -4.316843301383314E-011 -6.100649906249079E-011
   140.736378455089       5.834591343951836E-012  6.133070658786315E-011
   141.529259460470       2.282775716496263E-011 -4.607097546199945E-011
   142.322140465850      -3.785450789678087E-011  2.199437942925545E-011
   143.115021471231       3.814178320936268E-011  3.124581057077933E-012
   143.907902476612      -2.623628627014344E-011 -2.239913401804848E-011
   144.700783481993       7.324459645858674E-012  3.131428725218737E-011
   145.493664487374       1.226988027651473E-011 -2.851475393879406E-011
   146.286545492754      -2.669332852661486E-011  1.579359881019143E-011
   147.079426498135       3.190597021570743E-011  2.635778703614497E-012
   147.872307503516      -2.648475248129880E-011 -2.135257927265307E-011
   148.665188508897       1.175774689694751E-011  3.511077821635864E-011
   149.458069514277       8.700453307927464E-012 -4.006774100854247E-011
   150.250950519658      -3.004395923671869E-011  3.460005038596243E-011
   151.043831525039       4.734445279684133E-011 -1.956077700570863E-011
   151.836712530420      -5.671192321912916E-011 -2.033703457278048E-012
   152.629593535801       5.610474656658505E-011  2.577559606036029E-011
   153.422474541181      -4.567627374953153E-011 -4.689567704261496E-011
   154.215355546562       2.762093268412922E-011  6.131077315046979E-011
   155.008236551943      -5.595208529006416E-012 -6.646029376407753E-011
   155.801117557324      -1.612847389719689E-011  6.176295663227581E-011
   156.593998562705       3.357773199250581E-011 -4.861926887851600E-011
   157.386879568085      -4.387254522437126E-011  2.999243883443019E-011
   158.179760573466       4.573938466731305E-011 -9.691915702367732E-012
   158.972641578847      -3.965849866154745E-011 -8.462977797905169E-012
   159.765522584228       2.763729610495800E-011  2.141420263895231E-011
   160.558403589608      -1.268297143272634E-011 -2.741748139682234E-011
   161.351284594989      -1.892761544177574E-012  2.628122670774152E-011
   162.144165600370       1.317791183914352E-011 -1.926877545026584E-011
   162.937046605751      -1.922524008666015E-011  8.711253288795791E-012
   163.729927611132       1.937134798753536E-011  2.566082767097485E-012
   164.522808616512      -1.426339350749361E-011 -1.187092747958227E-011
   165.315689621893       5.611738172424749E-012  1.719088936861959E-011
   166.108570627274       4.257765171214204E-012 -1.755402025517684E-011
   166.901451632655      -1.294268220267023E-011  1.314370300578084E-011
   167.694332638036       1.847504427795073E-011 -5.164288156520665E-012
   168.487213643416      -1.970101009867803E-011 -4.494244396899463E-012
   169.280094648797       1.646123523499333E-011  1.370659888627852E-011
   170.072975654178      -9.550679726219894E-012 -2.057458173378175E-011
   170.865856659559       4.836934970729594E-013  2.380462496248584E-011
   171.658737664939       8.871863549119223E-012 -2.292909619676918E-011
   172.451618670320      -1.670581006862624E-011  1.833867156963969E-011
   173.244499675701       2.163357029847265E-011 -1.113526165127451E-011
   174.037380681082      -2.294753091377770E-011  2.851286964240126E-012
   174.830261686463       2.070801021935078E-011  4.895754159180387E-012
   175.623142691843      -1.566717632984121E-011 -1.073764749004088E-011
   176.416023697224       9.055552699492126E-012  1.381157244750410E-011
   177.208904702605      -2.287689392864597E-012 -1.389154480619563E-011
   178.001785707986      -3.344392626170261E-012  1.137732334700373E-011
   178.794666713366       6.925161310001380E-012 -7.153676696277819E-012
   179.587547718747      -8.068798525753427E-012  2.359395999152009E-012
   180.380428724128       6.948315078098332E-012  1.878144170360555E-012
   181.173309729509      -4.204559858824635E-012 -4.683861706001072E-012
   181.966190734890       7.636544261125811E-013  5.601953323956427E-012
   182.759071740270       2.391650754695200E-012 -4.659073221014216E-012
   183.551952745651      -4.444814872084608E-012  2.318002858276485E-012
   184.344833751032       4.915514164439658E-012  6.602912720466183E-013
   185.137714756413      -3.744156748657615E-012 -3.410178613712102E-012
   185.930595761794       1.278491972218132E-012  5.165117945403217E-012
   186.723476767174       1.828576906338687E-012 -5.427126396518226E-012
   187.516357772555      -4.782637579426093E-012  4.067567789264500E-012
   188.309238777936       6.834167635861903E-012 -1.341568995786906E-012
   189.102119783317      -7.446400284090831E-012 -2.182230458276642E-012
   189.895000788697       6.409543588461058E-012  5.757018331737849E-012
   190.687881794078      -3.879364135246740E-012 -8.625977070876303E-012
   191.480762799459       3.351452659975836E-013  1.018589396659902E-011
   192.273643804840       3.530721519209748E-012 -1.011188520566590E-011
   193.066524810221      -6.965240134149744E-012  8.418905604381225E-012
   193.859405815601       9.315164026090911E-012 -5.449991404238663E-012
   194.652286820982      -1.016066803545156E-011  1.796505563699888E-012
   195.445167826363       9.395132869106577E-012  1.830866922635175E-012
   196.238048831744      -7.236720241712016E-012 -4.752207836504115E-012
   197.030929837124       4.172415492633618E-012  6.457685411484477E-012
   197.823810842505      -8.488773609397823E-013 -6.707235509580756E-012
   198.616691847886      -2.065679820526196E-012  5.570913532118139E-012
   199.409572853267       4.019608848795378E-012 -3.403413849418623E-012
   200.202453858648      -4.687983362672125E-012  7.602531940368894E-013
   200.995334864028       4.033251344379391E-012  1.725163956356720E-012
   201.788215869409      -2.305438165818458E-012 -3.477172050772904E-012
   202.581096874790      -1.655106651352853E-014  4.098166828282722E-012
   203.373977880171       2.329167790113867E-012 -3.449683963154397E-012
   204.166858885551      -4.031881062431922E-012  1.678921567013470E-012
   204.959739890932       4.652098767964173E-012  8.132874221414240E-013
   205.752620896313      -3.942456388008101E-012 -3.455359235657392E-012
   206.545501901694       1.931721431118243E-012  5.621249580490870E-012
   207.338382907075       1.079807790233417E-012 -6.756702157079672E-012
   208.131263912455      -4.578396484374124E-012  6.490774868590971E-012
   208.924144917836       7.936002169942515E-012 -4.711508154034299E-012
   209.717025923217      -1.053022078128247E-011  1.591970636956474E-012
   210.509906928598       1.186125826633119E-011  2.437539472367834E-012
   211.302787933979      -1.164350316875928E-011 -6.765521365995843E-012
   212.095668939359       9.855345736845572E-012  1.070934002827591E-011
   212.888549944740      -6.740134949979214E-012 -1.363885644158320E-011
   213.681430950121       2.760890591783316E-012  1.508999813985407E-011
   214.474311955502       1.481089578389441E-012 -1.484593137673004E-011
   215.267192960882      -5.349179733027648E-012  1.297022431557631E-011
   216.060073966263       8.279027056813787E-012 -9.787437299698892E-012
   216.852954971644      -9.872745968601094E-012  5.818136241706286E-012
   217.645835977025       9.962803921940016E-012 -1.683464725157833E-012
   218.438716982406      -8.633748152475791E-012 -2.002109778596313E-012
   219.231597987786       6.198407339290436E-012  4.731320480669040E-012
   220.024478993167      -3.134537864193777E-012 -6.181729581964849E-012
   220.817359998548      -4.662868455927651E-015  6.258661056263926E-012
   221.610241003929       2.688681066827723E-012 -5.097769971661146E-012
   222.403122009309      -4.498541295878135E-012  3.028663381519870E-012
   223.196003014690       5.191308657718273E-012 -5.077056850159678E-013
   223.988884020071      -4.730411151375198E-012 -1.966825089630142E-012
   224.781765025452       3.278567247509473E-012  3.941627462970740E-012
   225.574646030833      -1.156854939112452E-012 -5.082201560987354E-012
   226.367527036213      -1.220829858602104E-012  5.221659828160623E-012
   227.160408041594       3.424943155456338E-012 -4.377671910094893E-012
   227.953289046975      -5.084890494810931E-012  2.736683458630675E-012
   228.746170052356       5.948217548241431E-012 -6.102982276123644E-013
   229.539051057737      -5.915120963931907E-012 -1.626788953014796E-012
   230.331932063117       5.044012845843981E-012  3.605371720437282E-012
   231.124813068498      -3.529337357412340E-012 -5.024564143687269E-012
   231.917694073879       1.657704272075781E-012  5.698391108607491E-012
   232.710575079260       2.482499605810139E-013 -5.579071070736462E-012
   233.503456084640      -1.887568674921454E-012  4.754423121802401E-012
   234.296337090021       3.030272169377568E-012 -3.421655945535309E-012
   235.089218095402      -3.550544984261495E-012  1.844026267647730E-012
   235.882099100783       3.439358739158255E-012 -2.995616593292730E-013
   236.674980106164      -2.795813026605674E-012 -9.683027136040518E-013
   237.467861111544       1.800210018791859E-012  1.789614137822163E-012
   238.260742116925      -6.749690076800544E-013 -2.090431314748344E-012
   239.053623122306      -3.586952369711537E-013  1.896484515298479E-012
   239.846504127687       1.120201727410449E-012 -1.318939668246744E-012
   240.639385133067      -1.498349444053896E-012  5.262760193339467E-013
   241.432266138448       1.465073055222518E-012  2.915879624153779E-013
   242.225147143829      -1.072960820602883E-012 -9.598883389754005E-013
   243.018028149210       4.383185485369871E-013  1.349714030572866E-012
   243.810909154591       2.859734058521504E-013 -1.397765358975895E-012
   244.603790159971      -9.420607545593001E-013  1.112488714497891E-012
   245.396671165352       1.397074408553095E-012 -5.665694063245061E-013
   246.189552170733      -1.566124185436668E-012 -1.217672709224511E-013
   246.982433176114       1.424676539094299E-012  8.143580339773546E-013
   247.775314181495      -1.008867088592634E-012 -1.380394730449953E-012
   248.568195186875       4.045922746531875E-013  1.720289659436746E-012
   249.361076192256       2.718060579740351E-013 -1.782013133209249E-012
   250.153957197637      -8.971274707171091E-013  1.567493501459263E-012
   250.946838203018       1.364545846983346E-012 -1.128666336494600E-012
   251.739719208398      -1.602238563360029E-012  5.546644166173311E-013
   252.532600213779       1.584291960165140E-012  4.688806780995716E-014
   253.325481219160      -1.332407528051746E-012 -5.706892438941487E-013
   254.118362224541       9.087495122681377E-013  9.327858124979598E-013
   254.911243229922      -4.018871445012024E-013 -1.084483609396224E-012
   255.704124235302      -9.110855167053479E-014  1.018933226891810E-012
   256.497005240683       4.829031165561052E-013 -7.696461080226144E-013
   257.289886246064      -7.111687601261892E-013  4.017238157667170E-013
   258.082767251445       7.483452398518923E-013  2.128119627752669E-015
   258.875648256826      -6.045001611703955E-013 -3.579153855803302E-013
   259.668529262206       3.232166459648152E-013  5.958872571579045E-013
   260.461410267587       2.831466117387198E-014 -6.725292169272094E-013
   261.254291272968      -3.728626370558668E-013  5.770822108480972E-013
   262.047172278349       6.377298727973430E-013 -3.317638562619106E-013
   262.840053283729      -7.676749519171391E-013 -1.395568149626451E-014
   263.632934289110       7.339917414327756E-013  3.936370593878805E-013
   264.425815294491      -5.383814777417044E-013 -7.366103953423311E-013
   265.218696299872       2.112665327300670E-013  9.807658428196424E-013
   266.011577305253       1.948005718016889E-013 -1.083133637024898E-012
   266.804458310633      -6.151643730949999E-013  1.026516100278504E-012
   267.597339316014       9.845721200354362E-013 -8.212278607571120E-013
   268.390220321395      -1.248101499545898E-012  5.019162070817097E-013
   269.183101326776       1.369724419805890E-012 -1.203171829717504E-013
   269.975982332156      -1.337257222643729E-012 -2.644949744950292E-013
   270.768863337537       1.163108082747732E-012  5.964278955078385E-013
   271.561744342918      -8.809055718746212E-013 -8.313670180890854E-013
   272.354625348299       5.387342492560767E-013  9.434073843122323E-013
   273.147506353680      -1.902772944224353E-013 -9.275721324717563E-013
   273.940387359060      -1.144469642680696E-013  7.989508604612293E-013
   274.733268364441       3.370361831371114E-013 -5.887190948358447E-013
   275.526149369822      -4.560018001203734E-013  3.378842813550749E-013
   276.319030375203       4.687189952957276E-013 -8.988754553534345E-014
   277.111911380583      -3.900258712941243E-013 -1.166615662881034E-013
   277.904792385964       2.480445890426487E-013  2.539041993318131E-013
   278.697673391345      -7.819197906593435E-014 -3.083871541239655E-013
   279.490554396726      -8.345563536636928E-014  2.819957234011376E-013
   280.283435402107       2.062811434806488E-013 -1.902205910118718E-013
   281.076316407487      -2.697545026360727E-013  5.827580344770476E-014
   281.869197412868       2.659284186875544E-013  8.408724415753787E-014
   282.662078418249      -1.995744543396890E-013 -2.080740475846583E-013
   283.454959423630       8.615103634042459E-014  2.906885779033032E-013
   284.247840429011       5.185341708886509E-014 -3.181581428268648E-013
   285.040721434391      -1.894293990140930E-013  2.874870388565766E-013
   285.833602439772       3.035566357357091E-013 -2.060426917799057E-013
   286.626483445153      -3.769412319547365E-013  8.941821403387473E-014
   287.419364450534       4.004110879973288E-013  4.191844388891004E-014
   288.212245455914      -3.736924195489425E-013 -1.665213507499555E-013
   289.005126461295       3.046066982020881E-013  2.657041187658477E-013
   289.798007466676      -2.070014848724529E-013 -3.264860939358768E-013
   290.590888472057       9.790360088493869E-014  3.432865031679899E-013
   291.383769477438       5.561382801047262E-015 -3.181589978909322E-013
   292.176650482818      -8.897653398254093E-014  2.596562408219774E-013
   292.969531488199       1.427475475199826E-013 -1.806807671012865E-013
   293.762412493580      -1.632244633163573E-013  9.583319500342533E-014
   294.555293498961       1.527016214297175E-013 -1.878332635249655E-014
   295.348174504342      -1.183755605619127E-013 -3.989859355698493E-014
   296.141055509722       7.053787743220554E-014  7.414866068864759E-014
   296.933936515103      -2.040573016777838E-014 -8.290439708159845E-014
   297.726817520484      -2.197984105987316E-014  6.969578181438252E-014
   298.519698525865       4.941782032658638E-014 -4.148765382414989E-014
   299.312579531245      -5.852323838352657E-014  7.043595566706444E-015
   300.105460536626       4.991398013100051E-014  2.485814034522994E-014
   300.898341542007      -2.765636753097162E-014 -4.702894592958183E-014
   301.691222547388      -1.857189840805873E-015  5.502777989025370E-014
   302.484103552769       3.134243624309552E-014 -4.770925353246271E-014
   303.276984558149      -5.408322591034417E-014  2.712138590650689E-014
   304.069865563530       6.515379827435791E-014  2.168408401338897E-015
   304.862746568911      -6.220678312548471E-014 -3.414599368829995E-014
   305.655627574292       4.572530420995373E-014  6.259309557767852E-014
   306.448508579672      -1.874117436141951E-014 -8.226066378371815E-014
   307.241389585053      -1.388571369454041E-014  8.976702328119707E-014
   308.034270590434       4.646415521233795E-014 -8.408261068422718E-014
   308.827151595815      -7.354809031405801E-014  6.655109809133167E-014
   309.620032601196       9.089707539360489E-014 -4.048656067453701E-014
   310.412913606576      -9.615694541805439E-014  1.045880909786954E-014
   311.205794611957       8.915502325911376E-014  1.857988112197605E-014
   311.998675617338      -7.178165899168569E-014 -4.216585279406999E-014
   312.791556622719       4.751198579712255E-014  5.704957619135536E-014
   313.584437628099      -2.068723043657304E-014 -6.166528360067934E-014
   314.377318633480      -4.292889154552655E-015  5.628037263473884E-014
   315.170199638861       2.371791356795920E-014 -4.281735524020269E-014
   315.963080644242      -3.513372375450821E-014  2.440061770711865E-014
   316.755961649623       3.765043585245172E-014 -4.727824244785129E-015
   317.548842655003      -3.196176609798161E-014 -1.260962891300527E-014
   318.341723660384       2.009623393362466E-014  2.473410836171740E-014
   319.134604665765      -4.963638330143034E-015 -2.991782353360666E-014
   319.927485671146      -1.021023255946445E-014  2.778678318684081E-014
   320.720366676527       2.245617005105160E-014 -1.927719076476482E-014
   321.513247681907      -2.954418535989189E-014  6.372440141837987E-015
   322.306128687288       3.030236405896784E-014  8.316322663760619E-015
   323.099009692669      -2.473209677646720E-014 -2.204210330379539E-014
   323.891890698050       1.391775291652008E-014  3.239749781776413E-014
   324.684771703430       2.362102364520902E-016 -3.769513248877430E-014
   325.477652708811      -1.538155021965482E-014  3.719711331166592E-014
   326.270533714192       2.914324871758000E-014 -3.116729355683018E-014
   327.063414719573      -3.950492164681701E-014  2.075178865832158E-014
   327.856295724954       4.510323856681911E-014 -7.721644328369827E-015
   328.649176730334      -4.539332031885878E-014 -5.867152152497942E-015
   329.442057735715       4.067129919027496E-014  1.803039086365286E-014
   330.234938741096      -3.196253131513886E-014 -2.716554202650046E-014
   331.027819746477       2.080250446214577E-014  3.226684273857184E-014
   331.820700751857      -8.952433633650401E-015 -3.302156178249574E-014
   332.613581757238      -1.898594734216023E-015  2.978761882068185E-014
   333.406462762619       1.039239368607566E-014 -2.347078463172965E-014
   334.199343768000      -1.567981697206527E-014  1.533087997202146E-014
   334.992224773381       1.749629517847636E-014 -6.752906163878456E-015
   335.785105778761      -1.613423280504907E-014 -9.785215068065141E-016
   336.577986784142       1.232950074882578E-014  6.866024993355747E-015
   337.370867789523      -7.090970242780108E-015 -1.032109580982474E-014
   338.163748794904       1.507375437221578E-015  1.120723329209102E-014
   338.956629800285       3.434821095951355E-015 -9.805851809385568E-015
   339.749510805665      -6.994631555508371E-015  6.719069573010889E-015
   340.542391811046       8.762406893806831E-015 -2.732485280167390E-015
   341.335272816427      -8.681394290705881E-015 -1.334915140771930E-015
   342.128153821808       7.009331855726591E-015  4.767581822203220E-015
   342.921034827188      -4.233748754854260E-015 -7.056079140969232E-015
   343.713915832569       9.606355371065578E-016  7.952880636876922E-015
   344.506796837950       2.201820121573513E-015 -7.477849289898869E-015
   345.299677843331      -4.744570270326660E-015  5.878752707383849E-015
   346.092558848712       6.329202196649216E-015 -3.559013416675181E-015
   346.885439854092      -6.821538219293779E-015  9.889019240221797E-016
   347.678320859473       6.286649889210319E-015  1.382792126531771E-015
   348.471201864854      -4.951132345791556E-015 -3.201716447386901E-015
   349.264082870235       3.143186565938804E-015  4.255095287999438E-015
   350.056963875615      -1.223410030325731E-015 -4.488369753327258E-015
   350.849844880996      -4.808378812680912E-016  3.992553632514620E-015
   351.642725886377       1.726755039278260E-015 -2.968419703609386E-015
   352.435606891758      -2.386060665432559E-015  1.676762740622872E-015
   353.228487897139       2.451112971853551E-015 -3.850880095694886E-016
   354.021368902519      -2.019189422996465E-015 -6.796891147322286E-016
   354.814249907900       1.260537398723472E-015  1.365183274603703E-015
   355.607130913281      -3.779316531878033E-016 -1.609961032033519E-015
   356.400011918662      -4.340476693671295E-016  1.441818814737975E-015
   357.192892924042       1.022823221422636E-015 -9.605268744706306E-016
   357.985773929423      -1.299658080220297E-015  3.100497127119873E-016
   358.778654934804       1.247208134995614E-015  3.535139080211931E-016
   359.571535940185      -9.132764563309223E-016 -8.920448116648250E-016
   360.364416945566       3.936274554929094E-016  1.208457201281868E-015
   361.157297950946       1.917021739545154E-016 -1.259458183327872E-015
   361.950178956327      -7.235519028124573E-016  1.057001455592057E-015
   362.743059961708       1.105557005665531E-015 -6.595560024779198E-016
   363.535940967089      -1.279292214063179E-015  1.559872877621329E-016
   364.328821972470       1.230725005691981E-015  3.541725725788403E-016
   365.121702977850      -9.878438960078564E-016 -7.800977077498580E-016
   365.914583983231       6.109235863994512E-016  1.055251580421771E-015
   366.707464988612      -1.780408767546858E-016 -1.146825403943790E-015
   367.500345993993      -2.309933911650076E-016  1.058040826506776E-015
   368.293226999373       5.492049938621387E-016 -8.237031287454059E-016
   369.086108004754      -7.330813117590059E-016  5.005458552794560E-016
   369.878989010135       7.678007546819352E-016 -1.546697214272843E-016
   370.671870015516      -6.667477802974977E-016 -1.513453593198498E-016
   371.464751020897       4.660386135875708E-016  3.692943633111068E-016
   372.257632026277      -2.155758487594101E-016 -4.724345917191493E-016
   373.050513031658      -3.140589349905018E-017  4.579492355217922E-016
   373.843394037039       2.282832047066200E-016 -3.448574485577712E-016
   374.636275042420      -3.427590287505312E-016  1.682444433258679E-016
   375.429156047801       3.612100152050125E-016  2.876157094622565E-017
   376.222037053181      -2.892466010988044E-016 -2.035996587477720E-016
   377.014918058562       1.487839130889029E-016  3.218869985487770E-016
   377.807799063943       2.749215250442296E-017 -3.627920400593432E-016
   378.600680069324      -2.030140132012603E-016  3.214591213263975E-016
   379.393561074704       3.442222681092926E-016 -2.083684631959547E-016
   380.186442080085      -4.262467485440799E-016  4.606613422351297E-017
   380.979323085466       4.365096596633676E-016  1.358865675707378E-016
   381.772204090847      -3.758359319029736E-016 -3.066739749486812E-016
   382.565085096228       2.571314334007944E-016  4.396181688440683E-016
   383.357966101608      -1.021019118762968E-016 -5.163066025338359E-016
   384.150847106989      -6.322767417013326E-017  5.288824341942325E-016
   384.943728112370       2.133040447671862E-016 -4.803138738508158E-016
   385.736609117751      -3.272871847246846E-016  3.828324137104834E-016
   386.529490123131       3.920547323351063E-016 -2.550158455160876E-016
   387.322371128512      -4.035632149477128E-016  1.181494307101671E-016
   388.115252133893       3.665028713635665E-016  7.470470770696779E-018
   388.908133139274      -2.925119157828816E-016 -1.056907108279486E-016
   389.701014144655       1.974497389625206E-016  1.666481964680474E-016
   390.493895150035      -9.832021568601403E-017 -1.876396433279439E-016
   391.286776155416       1.039945127123346E-017  1.726868854271386E-016
   392.079657160797       5.499514735951523E-017 -1.310122250696126E-016
   392.872538166178      -9.181531269601027E-017  7.481799844379519E-017
   393.665419171558       9.956884285608207E-017 -1.684332618544452E-017
   394.458300176939      -8.265556776797435E-017 -3.185195653382982E-017
   395.251181182320       4.897450210992046E-017  6.352666607690389E-017
   396.044062187701      -8.122764628409234E-018 -7.461717024030375E-017
   396.836943193082      -3.046038078668966E-017  6.577164586495586E-017
   397.629824198462       5.908349856256061E-017 -4.116111876944105E-017
   398.422705203843      -7.289062027485999E-017  7.278364053915952E-018
   399.215586209224       7.032547343526979E-017  2.850423614352511E-017
   400.008467214605      -5.297322958737407E-017 -5.934029784364384E-017
   400.801348219986       2.488728207927892E-017  8.004235902732508E-017
   401.594229225366       8.417022987795042E-018 -8.778223883341835E-017
   402.387110230747      -4.108668817029261E-017  8.229276163233771E-017
   403.179991236128       6.796737026116700E-017 -6.559839632254628E-017
   403.972872241509      -8.538948705102921E-017  4.138070441758263E-017
   404.765753246890       9.160705038625504E-017 -1.413668212865030E-017
   405.558634252270      -8.686234123789771E-017 -1.169267723696138E-017
   406.351515257651       7.311142839792567E-017  3.246270238532099E-017
   407.144396263032      -5.349321754279644E-017 -4.582140148046067E-017
   407.937277268413       3.165799845152417E-017  5.091438559905605E-017
   408.730158273793      -1.108798256210902E-017 -4.831238198024556E-017
   409.523039279174      -5.465396464530628E-018  3.971749051383208E-017
   410.315920284555       1.633811871637261E-017 -2.752627510141249E-017
   411.108801289936      -2.106815798907051E-017  1.433690558835898E-017
   411.901682295317       2.028473413880577E-017 -2.487141245904616E-018
   412.694563300697      -1.542724192805573E-017 -6.302515409138266E-018
   413.487444306078       8.368824569435171E-018  1.113145685313241E-017
   414.280325311459      -1.023283187680982E-018 -1.195146201823638E-017
   415.073206316840      -4.995248324974337E-018  9.445866008761192E-018
   415.866087322220       8.609355356384887E-018 -4.797628009673539E-018
   416.658968327601      -9.386235477697319E-018 -5.973990305422443E-019
   417.451849332982       7.516264570430935E-018  5.413781141185716E-018
   418.244730338363      -3.684408166981930E-018 -8.626919920296989E-018
   419.037611343744      -1.127831596221324E-018  9.657360129141718E-018
   419.830492349124       5.865365286623912E-018 -8.415630943162760E-018
   420.623373354505      -9.604595963679749E-018  5.253714854824793E-018
   421.416254359886       1.170683037569766E-017 -8.449014670512422E-019
   422.209135365267      -1.189978725470357E-017 -3.976638622994695E-018
   423.002016370648       1.028217576318952E-017  8.382689200680543E-018
   423.794897376028      -7.260475370497939E-018 -1.169441428396071E-017
   424.587778381409       3.438129619590118E-018  1.348139521822594E-017
   425.380659386790       5.160602825893361E-019 -1.360614347483093E-017
   426.173540392171      -3.992632445207839E-018  1.221402016954409E-017
   426.966421397551       6.536797923085570E-018 -9.676413410498291E-018
   427.759302402932      -7.901985236933112E-018  6.501212079901780E-018
   428.552183408313       8.060096664278134E-018 -3.229453719453009E-018
   429.345064413694      -7.174815119833318E-018  3.389669089048489E-019
   430.137945419075       5.548130369981299E-018  1.827256557025533E-018
   430.930826424455      -3.551892761436111E-018 -3.097888197889887E-018
   431.723707429836       1.557000038238713E-018  3.474197995534656E-018
   432.516588435217       1.277130967430900E-019 -3.101134071144528E-018
   433.309469440598      -1.297488069167257E-018  2.218707276922640E-018
   434.102350445978       1.869655949031279E-018 -1.105281012307220E-018
   434.895231451359      -1.877817620920856E-018  2.372182651399246E-020
   435.688112456740       1.446719412574123E-018  8.208720150494932E-019
   436.480993462121      -7.551947762237578E-019 -1.306459021135852E-018
   437.273874467502      -4.427002083946978E-021  1.400697744150474E-018
   438.066755472882       6.627054033508140E-019 -1.150772051911787E-018
   438.859636478263      -1.099480107320726E-018  6.608858077382781E-019
   439.652517483644       1.257170205424850E-018 -6.338908563653570E-020
   440.445398489025      -1.140706836604555E-018 -5.103048395047488E-019
   441.238279494405       8.062579501195369E-019  9.537804072539559E-019
   442.031160499786      -3.425670002502990E-019 -1.201147633924115E-018
   442.824041505167      -1.505606400089371E-019  1.232614547848816E-018
   443.616922510548       5.823061457420225E-019 -1.070712257906877E-018
   444.409803515929      -8.860539144518164E-019  7.693957805238948E-019
   445.202684521309       1.027797662319485E-018 -3.992012574226635E-019
   445.995565526690      -1.007269286373026E-018  3.184295066611301E-020
   446.788446532071       8.526990586631285E-019  2.728487754060466E-019
   447.581327537452      -6.111561101062942E-019 -4.756900191849151E-019
   448.374208542832       3.369715016588002E-019  5.617584088959880E-019
   449.167089548213      -8.073301106039844E-020 -5.390516382138378E-019
   449.959970553594      -1.191794457880096E-019  4.332128949102641E-019
   450.752851558975       2.413762055958832E-019 -2.798951159619165E-019
   451.545732564356      -2.823077048698251E-019  1.165410002024716E-019
   452.338613569736       2.536983159507879E-019  2.479760252531152E-020
   453.131494575117      -1.776156752056852E-019 -1.224235634063373E-019
   453.924375580498       8.048390234148151E-020  1.671723903035427E-019
   454.717256585879       1.267103352490334E-020 -1.618563092930667E-019
   455.510137591260      -8.270815548758965E-020  1.185366685483416E-019
   456.303018596640       1.189598953818913E-019 -5.450629549003604E-020
   457.095899602021      -1.197508417532503E-019 -1.203652693150469E-020
   457.888780607402       9.109471399679066E-020  6.574318495034182E-020
   458.681661612783      -4.412330741126778E-020 -9.667249591719627E-020
   459.474542618163      -8.046695295426547E-021  1.013560162497085E-019
   460.267423623544       5.330965660717860E-020 -8.241037913713721E-020
   461.060304628925      -8.286942888721552E-020  4.700973289421173E-020
   461.853185634306       9.250464189007997E-020 -4.701329588355452E-021
   462.646066639687      -8.271890584566472E-020 -3.490256375152203E-020
   463.438947645067       5.792377340350544E-020  6.408378210467347E-020
   464.231828650448      -2.496762266107607E-020 -7.829793154693370E-020
   465.024709655829      -8.597553092066702E-021  7.662786643700079E-020
   465.817590661210       3.612919932215369E-020 -6.144785085980613E-020
   466.610471666591      -5.308759958611031E-020  3.748370820478091E-020
   467.403352671971       5.763830797225350E-020 -1.054438949552891E-020
   468.196233677352      -5.063377770171591E-020 -1.377656939398176E-020
   468.989114682733       3.506971878264931E-020  3.116999427794770E-020
   469.781995688114      -1.519954036975067E-020 -3.927456770128553E-020
   470.574876693494      -4.470510240004176E-021  3.786463104092690E-020
   471.367757698875       2.009252497069952E-020 -2.859532649518489E-020
   472.160638704256      -2.913094634938648E-020  1.441926322306037E-020
   472.953519709637       3.066987139133864E-020  1.164382673249896E-021
   473.746400715018      -2.536448097863669E-020 -1.485887203797277E-020
   474.539281720398       1.509762756463163E-020  2.417302621650229E-020
   475.332162725779      -2.450517254466852E-021 -2.778394710987208E-020
   476.125043731160      -9.883907625156983E-021  2.562509593821916E-020
   476.917924736541       1.962438675925640E-020 -1.872332773349374E-020
   477.710805741921      -2.527116979328992E-020  8.853059432823099E-021
   478.503686747302       2.627480861268889E-020  1.899529343423721E-021
   479.296567752683      -2.300200298862016E-020 -1.156626041716209E-020
   480.089448758064       1.653553584403106E-020  1.864050068293653E-020
   480.882329763445      -8.371213953537749E-021 -2.228307952699526E-020
   481.675210768825       8.459702073959299E-023  2.237334321350758E-020
   482.468091774206       6.965251713291742E-021 -1.942019381267637E-020
   483.260972779587      -1.184528633360726E-020  1.437204932929869E-020
   484.053853784968       1.414589199788775E-020 -8.377376174060541E-021
   484.846734790349      -1.396624290802247E-020  2.548245638997124E-021
   485.639615795729       1.180905387396485E-020  2.229843188933868E-021
   486.432496801110      -8.419891083125940E-021 -5.414408833461596E-021
   487.225377806491       4.610713765152517E-021  6.839593712445935E-021
   488.018258811872      -1.103314939492497E-021 -6.674971167612381E-021
   488.811139817252      -1.581810322865097E-021  5.330456245826080E-021
   489.604020822633       3.178799695404755E-021 -3.334914036380271E-021
   490.396901828014      -3.672729082414603E-021  1.216201160107314E-021
   491.189782833395       3.250311729371481E-021  5.949591443054997E-022
   491.982663838776      -2.222994918241020E-021 -1.823633186753191E-021
   492.775544844156       9.423898120687998E-022  2.368046857950146E-021
   493.568425849537       2.743265598053191E-022 -2.280580630758112E-021
   494.361306854918      -1.196727187078001E-021  1.723415371875327E-021
   495.154187860299       1.705615515055089E-021 -9.126303687871577E-022
   495.947068865680      -1.790687817382253E-021  6.406268159214755E-023
   496.739949871060       1.527492121472887E-021  6.488103545586430E-022
   497.532830876441      -1.042668702144724E-021 -1.119207801526742E-021
   498.325711881822       4.769417582741237E-022  1.312612191167328E-021
   499.118592887203       4.620764667666793E-023 -1.256586791349000E-021
   499.911473892583      -4.411078717944207E-022  1.020434495477200E-021
   500.704354897964       6.679329947109123E-022 -6.911736294131436E-022
   501.497235903345      -7.294255081700943E-022  3.516517411338011E-022
   502.290116908726       6.596199791724758E-022 -6.487212271469724E-023
   503.082997914107      -5.088303452413886E-022 -1.336358197678063E-022
   503.875878919487       3.289964536933845E-022  2.357227004273528E-022
   504.668759924868      -1.624683370257076E-022 -2.547266149450847E-022
   505.461640930249       3.583408491215807E-023  2.165241045404252E-022
   506.254521935630       4.111214636726111E-023 -1.502865867637911E-022
   507.047402941010      -7.236083743312459E-023  8.109890684312570E-023
   507.840283946391       7.040348475405738E-023 -2.564027505011965E-023
   508.633164951772      -5.053668254333706E-023 -8.886301643738262E-024
   509.426045957153       2.624128869915769E-023  2.321460487519359E-023
   510.218926962534      -6.475709960114965E-024 -2.298308644670650E-023
   511.011807967914      -4.979359795148044E-024  1.541616274990992E-023
   511.804688973295       8.555938749479561E-024 -6.684689938213961E-024
   512.597569978676      -7.064899331845071E-024  4.741717642240573E-025
   513.390450984057       3.787002788682774E-024  2.187674699820035E-024
   514.183331989437      -1.094821544632514E-024 -2.172132697957114E-024
   514.976212994818      -1.069346633844003E-025  1.085577124070898E-024
   515.769094000199       1.680956741854443E-025 -2.233536048608047E-025
   516.561975005580      -1.187815606787048E-051  5.003587552960884E-052
