  32262.1600     0.36939E+02 
  32302.4877     0.38036E+02 
  32342.8154     0.39171E+02 
  32383.1431     0.40343E+02 
  32423.4708     0.41556E+02 
  32463.7985     0.42810E+02 
  32504.1262     0.44107E+02 
  32544.4539     0.45448E+02 
  32584.7816     0.46836E+02 
  32625.1093     0.48274E+02 
  32665.4370     0.49760E+02 
  32705.7647     0.51300E+02 
  32746.0924     0.52894E+02 
  32786.4201     0.54546E+02 
  32826.7478     0.56256E+02 
  32867.0755     0.58028E+02 
  32907.4032     0.59865E+02 
  32947.7309     0.61769E+02 
  32988.0586     0.63744E+02 
  33028.3863     0.65790E+02 
  33068.7140     0.67914E+02 
  33109.0417     0.70117E+02 
  33149.3694     0.72404E+02 
  33189.6971     0.74777E+02 
  33230.0248     0.77241E+02 
  33270.3525     0.79800E+02 
  33310.6802     0.82458E+02 
  33351.0079     0.85221E+02 
  33391.3356     0.88093E+02 
  33431.6633     0.91078E+02 
  33471.9910     0.94182E+02 
  33512.3187     0.97411E+02 
  33552.6464     0.10077E+03 
  33592.9741     0.10427E+03 
  33633.3018     0.10791E+03 
  33673.6295     0.11170E+03 
  33713.9572     0.11565E+03 
  33754.2849     0.11977E+03 
  33794.6126     0.12406E+03 
  33834.9403     0.12854E+03 
  33875.2680     0.13321E+03 
  33915.5957     0.13808E+03 
  33955.9234     0.14316E+03 
  33996.2511     0.14848E+03 
  34036.5788     0.15402E+03 
  34076.9065     0.15982E+03 
  34117.2342     0.16589E+03 
  34157.5619     0.17223E+03 
  34197.8896     0.17886E+03 
  34238.2173     0.18581E+03 
  34278.5450     0.19308E+03 
  34318.8727     0.20070E+03 
  34359.2004     0.20869E+03 
  34399.5281     0.21706E+03 
  34439.8558     0.22585E+03 
  34480.1835     0.23508E+03 
  34520.5112     0.24477E+03 
  34560.8389     0.25494E+03 
  34601.1666     0.26564E+03 
  34641.4943     0.27690E+03 
  34681.8220     0.28875E+03 
  34722.1497     0.30122E+03 
  34762.4774     0.31437E+03 
  34802.8051     0.32823E+03 
  34843.1328     0.34285E+03 
  34883.4605     0.35828E+03 
  34923.7882     0.37459E+03 
  34964.1159     0.39183E+03 
  35004.4436     0.41006E+03 
  35044.7713     0.42936E+03 
  35085.0990     0.44981E+03 
  35125.4267     0.47149E+03 
  35165.7544     0.49449E+03 
  35206.0821     0.51892E+03 
  35246.4098     0.54488E+03 
  35286.7375     0.57250E+03 
  35327.0652     0.60191E+03 
  35367.3929     0.63326E+03 
  35407.7206     0.66670E+03 
  35448.0483     0.70241E+03 
  35488.3760     0.74059E+03 
  35528.7037     0.78145E+03 
  35569.0314     0.82524E+03 
  35609.3591     0.87220E+03 
  35649.6868     0.92265E+03 
  35690.0145     0.97691E+03 
  35730.3422     0.10353E+04 
  35770.6699     0.10984E+04 
  35810.9976     0.11664E+04 
  35851.3253     0.12400E+04 
  35891.6530     0.13198E+04 
  35931.9807     0.14063E+04 
  35972.3084     0.15004E+04 
  36012.6361     0.16029E+04 
  36052.9638     0.17147E+04 
  36093.2915     0.18369E+04 
  36133.6192     0.19708E+04 
  36173.9469     0.21179E+04 
  36214.2746     0.22797E+04 
  36254.6023     0.24583E+04 
  36294.9300     0.26558E+04 
  36335.2577     0.28748E+04 
  36375.5854     0.31183E+04 
  36415.9131     0.33899E+04 
  36456.2408     0.36936E+04 
  36496.5685     0.40346E+04 
  36536.8962     0.44184E+04 
  36577.2239     0.48519E+04 
  36617.5516     0.53434E+04 
  36657.8793     0.59022E+04 
  36698.2070     0.65400E+04 
  36738.5347     0.72702E+04 
  36778.8624     0.81087E+04 
  36819.1901     0.90741E+04 
  36859.5178     0.10187E+05 
  36899.8455     0.11472E+05 
  36940.1732     0.12954E+05 
  36980.5009     0.14655E+05 
  37020.8286     0.16597E+05 
  37061.1563     0.18788E+05 
  37101.4840     0.21216E+05 
  37141.8117     0.23837E+05 
  37182.1394     0.26568E+05 
  37222.4671     0.29277E+05 
  37262.7948     0.31791E+05 
  37303.1225     0.33918E+05 
  37343.4502     0.35473E+05 
  37383.7779     0.36306E+05 
  37424.1056     0.36329E+05 
  37464.4333     0.35516E+05 
  37504.7610     0.33908E+05 
  37545.0887     0.31594E+05 
  37585.4164     0.28696E+05 
  37625.7441     0.25361E+05 
  37666.0718     0.21751E+05 
  37706.3995     0.18041E+05 
  37746.7272     0.14418E+05 
  37787.0549     0.11067E+05 
  37827.3826     0.81566E+04 
  37867.7103     0.58144E+04 
  37908.0380     0.41087E+04 
  37948.3657     0.30404E+04 
  37988.6934     0.25457E+04 
  38029.0211     0.25113E+04 
  38069.3488     0.27952E+04 
  38109.6765     0.32520E+04 
  38150.0042     0.37555E+04 
  38190.3319     0.42175E+04 
  38230.6596     0.45978E+04 
  38270.9873     0.49070E+04 
  38311.3150     0.52009E+04 
  38351.6427     0.55700E+04 
  38391.9704     0.61242E+04 
  38432.2981     0.69758E+04 
  38472.6258     0.82213E+04 
  38512.9535     0.99268E+04 
  38553.2812     0.12116E+05 
  38593.6089     0.14763E+05 
  38633.9366     0.17794E+05 
  38674.2643     0.21091E+05 
  38714.5920     0.24506E+05 
  38754.9197     0.27882E+05 
  38795.2474     0.31073E+05 
  38835.5751     0.33958E+05 
  38875.9028     0.36451E+05 
  38916.2305     0.38496E+05 
  38956.5582     0.40061E+05 
  38996.8859     0.41122E+05 
  39037.2136     0.41664E+05 
  39077.5413     0.41677E+05 
  39117.8690     0.41170E+05 
  39158.1967     0.40179E+05 
  39198.5244     0.38771E+05 
  39238.8521     0.37039E+05 
  39279.1798     0.35085E+05 
  39319.5075     0.33001E+05 
  39359.8352     0.30849E+05 
  39400.1629     0.28660E+05 
  39440.4906     0.26441E+05 
  39480.8183     0.24189E+05 
  39521.1460     0.21909E+05 
  39561.4737     0.19626E+05 
  39601.8014     0.17388E+05 
  39642.1291     0.15258E+05 
  39682.4568     0.13302E+05 
  39722.7845     0.11578E+05 
  39763.1122     0.10128E+05 
  39803.4399     0.89728E+04 
  39843.7676     0.81101E+04 
  39884.0953     0.75222E+04 
  39924.4230     0.71793E+04 
  39964.7507     0.70469E+04 
  40005.0784     0.70906E+04 
  40045.4061     0.72815E+04 
  40085.7338     0.75974E+04 
  40126.0615     0.80247E+04 
  40166.3892     0.85572E+04 
  40206.7169     0.91959E+04 
  40247.0446     0.99446E+04 
  40287.3723     0.10808E+05 
  40327.7000     0.11787E+05 
  40368.0277     0.12874E+05 
  40408.3554     0.14052E+05 
  40448.6831     0.15290E+05 
  40489.0108     0.16549E+05 
  40529.3385     0.17783E+05 
  40569.6662     0.18949E+05 
  40609.9939     0.20011E+05 
  40650.3216     0.20942E+05 
  40690.6493     0.21722E+05 
  40730.9770     0.22337E+05 
  40771.3047     0.22772E+05 
  40811.6324     0.23011E+05 
  40851.9601     0.23041E+05 
  40892.2878     0.22856E+05 
  40932.6155     0.22460E+05 
  40972.9432     0.21877E+05 
  41013.2709     0.21141E+05 
  41053.5986     0.20299E+05 
  41093.9263     0.19395E+05 
  41134.2540     0.18465E+05 
  41174.5817     0.17536E+05 
  41214.9094     0.16619E+05 
  41255.2371     0.15720E+05 
  41295.5648     0.14839E+05 
  41335.8925     0.13978E+05 
  41376.2202     0.13143E+05 
  41416.5479     0.12341E+05 
  41456.8756     0.11587E+05 
  41497.2033     0.10891E+05 
  41537.5310     0.10265E+05 
  41577.8587     0.97172E+04 
  41618.1864     0.92523E+04 
  41658.5141     0.88720E+04 
  41698.8418     0.85746E+04 
  41739.1695     0.83562E+04 
  41779.4972     0.82114E+04 
  41819.8249     0.81331E+04 
  41860.1526     0.81141E+04 
  41900.4803     0.81471E+04 
  41940.8080     0.82246E+04 
  41981.1357     0.83398E+04 
  42021.4634     0.84871E+04 
  42061.7911     0.86607E+04 
  42102.1188     0.88556E+04 
  42142.4465     0.90655E+04 
  42182.7742     0.92834E+04 
  42223.1019     0.95007E+04 
  42263.4296     0.97074E+04 
  42303.7573     0.98942E+04 
  42344.0850     0.10053E+05 
  42384.4127     0.10180E+05 
  42424.7404     0.10271E+05 
  42465.0681     0.10328E+05 
  42505.3958     0.10349E+05 
  42545.7235     0.10336E+05 
  42586.0512     0.10286E+05 
  42626.3789     0.10199E+05 
  42666.7066     0.10071E+05 
  42707.0343     0.99035E+04 
  42747.3620     0.96989E+04 
  42787.6897     0.94632E+04 
  42828.0174     0.92040E+04 
  42868.3451     0.89299E+04 
  42908.6728     0.86485E+04 
  42949.0005     0.83657E+04 
  42989.3282     0.80860E+04 
  43029.6559     0.78120E+04 
  43069.9836     0.75452E+04 
  43110.3113     0.72870E+04 
  43150.6390     0.70388E+04 
  43190.9667     0.68022E+04 
  43231.2944     0.65786E+04 
  43271.6221     0.63700E+04 
  43311.9498     0.61775E+04 
  43352.2775     0.60021E+04 
  43392.6052     0.58448E+04 
  43432.9329     0.57053E+04 
  43473.2606     0.55832E+04 
  43513.5883     0.54780E+04 
  43553.9160     0.53881E+04 
  43594.2437     0.53126E+04 
  43634.5714     0.52493E+04 
  43674.8991     0.51971E+04 
  43715.2268     0.51539E+04 
  43755.5545     0.51182E+04 
  43795.8822     0.50886E+04 
  43836.2099     0.50639E+04 
  43876.5376     0.50431E+04 
  43916.8653     0.50250E+04 
  43957.1930     0.50081E+04 
  43997.5207     0.49909E+04 
  44037.8484     0.49719E+04 
  44078.1761     0.49496E+04 
  44118.5038     0.49230E+04 
  44158.8315     0.48914E+04 
  44199.1592     0.48551E+04 
  44239.4869     0.48141E+04 
  44279.8146     0.47692E+04 
  44320.1423     0.47208E+04 
  44360.4700     0.46691E+04 
  44400.7977     0.46143E+04 
  44441.1254     0.45565E+04 
  44481.4531     0.44958E+04 
  44521.7808     0.44329E+04 
  44562.1085     0.43686E+04 
  44602.4362     0.43039E+04 
  44642.7639     0.42401E+04 
  44683.0916     0.41781E+04 
  44723.4193     0.41192E+04 
  44763.7470     0.40638E+04 
  44804.0747     0.40128E+04 
  44844.4024     0.39666E+04 
  44884.7301     0.39257E+04 
  44925.0578     0.38905E+04 
  44965.3855     0.38615E+04 
  45005.7132     0.38391E+04 
  45046.0409     0.38239E+04 
  45086.3686     0.38162E+04 
  45126.6963     0.38167E+04 
  45167.0240     0.38258E+04 
  45207.3517     0.38440E+04 
  45247.6794     0.38718E+04 
  45288.0071     0.39099E+04 
  45328.3348     0.39589E+04 
  45368.6625     0.40196E+04 
  45408.9902     0.40929E+04 
  45449.3179     0.41798E+04 
  45489.6456     0.42816E+04 
  45529.9733     0.43998E+04 
  45570.3010     0.45363E+04 
  45610.6287     0.46935E+04 
  45650.9564     0.48738E+04 
  45691.2841     0.50804E+04 
  45731.6118     0.53167E+04 
  45771.9395     0.55863E+04 
  45812.2672     0.58936E+04 
  45852.5949     0.62425E+04 
  45892.9226     0.66371E+04 
  45933.2503     0.70800E+04 
  45973.5780     0.75719E+04 
  46013.9057     0.81088E+04 
  46054.2334     0.86799E+04 
  46094.5611     0.92638E+04 
  46134.8888     0.98259E+04 
  46175.2165     0.10318E+05 
  46215.5442     0.10680E+05 
  46255.8719     0.10854E+05 
  46296.1996     0.10795E+05 
  46336.5273     0.10488E+05 
  46376.8550     0.99489E+04 
  46417.1827     0.92219E+04 
  46457.5104     0.83631E+04 
  46497.8381     0.74291E+04 
  46538.1658     0.64694E+04 
  46578.4935     0.55251E+04 
  46618.8212     0.46321E+04 
  46659.1489     0.38263E+04 
  46699.4766     0.31478E+04 
  46739.8043     0.26402E+04 
  46780.1320     0.23437E+04 
  46820.4597     0.22826E+04 
  46860.7874     0.24550E+04 
  46901.1151     0.28290E+04 
  46941.4428     0.33463E+04 
  46981.7705     0.39324E+04 
  47022.0982     0.45093E+04 
  47062.4259     0.50092E+04 
  47102.7536     0.53893E+04 
  47143.0813     0.56402E+04 
  47183.4090     0.57855E+04 
  47223.7367     0.58694E+04 
  47264.0644     0.59418E+04 
  47304.3921     0.60457E+04 
  47344.7198     0.62135E+04 
  47385.0475     0.64708E+04 
  47425.3752     0.68430E+04 
  47465.7029     0.73636E+04 
  47506.0306     0.80754E+04 
  47546.3583     0.90312E+04 
  47586.6860     0.10281E+05 
  47627.0137     0.11855E+05 
  47667.3414     0.13743E+05 
  47707.6691     0.15876E+05 
  47747.9968     0.18122E+05 
  47788.3245     0.20298E+05 
  47828.6522     0.22201E+05 
  47868.9799     0.23648E+05 
  47909.3076     0.24514E+05 
  47949.6353     0.24752E+05 
  47989.9630     0.24386E+05 
  48030.2907     0.23492E+05 
  48070.6184     0.22160E+05 
  48110.9461     0.20478E+05 
  48151.2738     0.18522E+05 
  48191.6015     0.16364E+05 
  48231.9292     0.14081E+05 
  48272.2569     0.11773E+05 
  48312.5846     0.95639E+04 
  48352.9123     0.75937E+04 
  48393.2400     0.59907E+04 
  48433.5677     0.48485E+04 
  48473.8954     0.42076E+04 
  48514.2231     0.40476E+04 
  48554.5508     0.42888E+04 
  48594.8785     0.48056E+04 
  48635.2062     0.54495E+04 
  48675.5339     0.60814E+04 
  48715.8616     0.65993E+04 
  48756.1893     0.69522E+04 
  48796.5170     0.71346E+04 
  48836.8447     0.71693E+04 
  48877.1724     0.70893E+04 
  48917.5001     0.69275E+04 
  48957.8278     0.67145E+04 
  48998.1555     0.64845E+04 
  49038.4832     0.62826E+04 
  49078.8109     0.61715E+04 
  49119.1386     0.62337E+04 
  49159.4663     0.65625E+04 
  49199.7940     0.72447E+04 
  49240.1217     0.83360E+04 
  49280.4494     0.98393E+04 
  49320.7771     0.11693E+05 
  49361.1048     0.13772E+05 
  49401.4325     0.15908E+05 
  49441.7602     0.17924E+05 
  49482.0879     0.19663E+05 
  49522.4156     0.21018E+05 
  49562.7433     0.21935E+05 
  49603.0710     0.22399E+05 
  49643.3987     0.22421E+05 
  49683.7264     0.22020E+05 
  49724.0541     0.21217E+05 
  49764.3818     0.20043E+05 
  49804.7095     0.18548E+05 
  49845.0372     0.16807E+05 
  49885.3649     0.14926E+05 
  49925.6926     0.13030E+05 
  49966.0203     0.11251E+05 
  50006.3480     0.97110E+04 
  50046.6757     0.85019E+04 
  50087.0034     0.76748E+04 
  50127.3311     0.72291E+04 
  50167.6588     0.71145E+04 
  50207.9865     0.72436E+04 
  50248.3142     0.75152E+04 
  50288.6419     0.78376E+04 
  50328.9696     0.81418E+04 
  50369.2973     0.83845E+04 
  50409.6250     0.85415E+04 
  50449.9527     0.86002E+04 
  50490.2804     0.85537E+04 
  50530.6081     0.84001E+04 
  50570.9358     0.81440E+04 
  50611.2635     0.78015E+04 
  50651.5912     0.74037E+04 
  50691.9189     0.69993E+04 
  50732.2466     0.66527E+04 
  50772.5743     0.64334E+04 
  50812.9020     0.64044E+04 
  50853.2297     0.66086E+04 
  50893.5574     0.70570E+04 
  50933.8851     0.77252E+04 
  50974.2128     0.85575E+04 
  51014.5405     0.94790E+04 
  51054.8682     0.10412E+05 
  51095.1959     0.11289E+05 
  51135.5236     0.12058E+05 
  51175.8513     0.12681E+05 
  51216.1790     0.13129E+05 
  51256.5067     0.13380E+05 
  51296.8344     0.13420E+05 
  51337.1621     0.13242E+05 
  51377.4898     0.12853E+05 
  51417.8175     0.12275E+05 
  51458.1452     0.11546E+05 
  51498.4729     0.10718E+05 
  51538.8006     0.98529E+04 
  51579.1283     0.90134E+04 
  51619.4560     0.82591E+04 
  51659.7837     0.76349E+04 
  51700.1114     0.71655E+04 
  51740.4391     0.68526E+04 
  51780.7668     0.66790E+04 
  51821.0945     0.66162E+04 
  51861.4222     0.66329E+04 
  51901.7499     0.67003E+04 
  51942.0776     0.67938E+04 
  51982.4053     0.68924E+04 
  52022.7330     0.69778E+04 
  52063.0607     0.70336E+04 
  52103.3884     0.70465E+04 
  52143.7161     0.70071E+04 
  52184.0438     0.69116E+04 
  52224.3715     0.67639E+04 
  52264.6992     0.65763E+04 
  52305.0269     0.63692E+04 
  52345.3546     0.61686E+04 
  52385.6823     0.60017E+04 
  52426.0100     0.58925E+04 
  52466.3377     0.58559E+04 
  52506.6654     0.58960E+04 
  52546.9931     0.60054E+04 
  52587.3208     0.61687E+04 
  52627.6485     0.63667E+04 
  52667.9762     0.65799E+04 
  52708.3039     0.67899E+04 
  52748.6316     0.69801E+04 
  52788.9593     0.71348E+04 
  52829.2870     0.72401E+04 
  52869.6147     0.72842E+04 
  52909.9424     0.72590E+04 
  52950.2701     0.71609E+04 
  52990.5978     0.69915E+04 
  53030.9255     0.67580E+04 
  53071.2532     0.64730E+04 
  53111.5809     0.61536E+04 
  53151.9086     0.58200E+04 
  53192.2363     0.54931E+04 
  53232.5640     0.51908E+04 
  53272.8917     0.49263E+04 
  53313.2194     0.47066E+04 
  53353.5471     0.45335E+04 
  53393.8748     0.44048E+04 
  53434.2025     0.43162E+04 
  53474.5302     0.42623E+04 
  53514.8579     0.42367E+04 
  53555.1856     0.42324E+04 
  53595.5133     0.42420E+04 
  53635.8410     0.42581E+04 
  53676.1687     0.42736E+04 
  53716.4964     0.42825E+04 
  53756.8241     0.42802E+04 
  53797.1518     0.42641E+04 
  53837.4795     0.42340E+04 
  53877.8072     0.41923E+04 
  53918.1349     0.41438E+04 
  53958.4626     0.40942E+04 
  53998.7903     0.40493E+04 
  54039.1180     0.40135E+04 
  54079.4457     0.39890E+04 
  54119.7734     0.39759E+04 
  54160.1011     0.39725E+04 
  54200.4288     0.39764E+04 
  54240.7565     0.39842E+04 
  54281.0842     0.39925E+04 
  54321.4119     0.39974E+04 
  54361.7396     0.39950E+04 
  54402.0673     0.39815E+04 
  54442.3950     0.39536E+04 
  54482.7227     0.39085E+04 
  54523.0504     0.38449E+04 
  54563.3781     0.37622E+04 
  54603.7058     0.36615E+04 
  54644.0335     0.35452E+04 
  54684.3612     0.34170E+04 
  54724.6889     0.32819E+04 
  54765.0166     0.31449E+04 
  54805.3443     0.30110E+04 
  54845.6720     0.28843E+04 
  54885.9997     0.27677E+04 
  54926.3274     0.26632E+04 
  54966.6551     0.25719E+04 
  55006.9828     0.24945E+04 
  55047.3105     0.24306E+04 
  55087.6382     0.23796E+04 
  55127.9659     0.23402E+04 
  55168.2936     0.23108E+04 
  55208.6213     0.22895E+04 
  55248.9490     0.22745E+04 
  55289.2767     0.22636E+04 
  55329.6044     0.22552E+04 
  55369.9321     0.22476E+04 
  55410.2598     0.22398E+04 
  55450.5875     0.22314E+04 
  55490.9152     0.22222E+04 
  55531.2429     0.22125E+04 
  55571.5706     0.22028E+04 
  55611.8983     0.21932E+04 
  55652.2260     0.21838E+04 
  55692.5537     0.21745E+04 
  55732.8814     0.21649E+04 
  55773.2091     0.21546E+04 
  55813.5368     0.21431E+04 
  55853.8645     0.21298E+04 
  55894.1922     0.21141E+04 
  55934.5199     0.20952E+04 
  55974.8476     0.20725E+04 
  56015.1753     0.20455E+04 
  56055.5030     0.20137E+04 
  56095.8307     0.19771E+04 
  56136.1584     0.19355E+04 
  56176.4861     0.18892E+04 
  56216.8138     0.18389E+04 
  56257.1415     0.17853E+04 
  56297.4692     0.17296E+04 
  56337.7969     0.16728E+04 
  56378.1246     0.16161E+04 
  56418.4523     0.15606E+04 
  56458.7800     0.15070E+04 
  56499.1077     0.14563E+04 
  56539.4354     0.14088E+04 
  56579.7631     0.13651E+04 
  56620.0908     0.13255E+04 
  56660.4185     0.12901E+04 
  56700.7462     0.12587E+04 
  56741.0739     0.12313E+04 
  56781.4016     0.12075E+04 
  56821.7293     0.11871E+04 
  56862.0570     0.11695E+04 
  56902.3847     0.11544E+04 
  56942.7124     0.11413E+04 
  56983.0401     0.11299E+04 
  57023.3678     0.11197E+04 
  57063.6955     0.11106E+04 
  57104.0232     0.11023E+04 
  57144.3509     0.10946E+04 
  57184.6786     0.10872E+04 
  57225.0063     0.10800E+04 
  57265.3340     0.10728E+04 
  57305.6617     0.10653E+04 
  57345.9894     0.10573E+04 
  57386.3171     0.10486E+04 
  57426.6448     0.10392E+04 
  57466.9725     0.10287E+04 
  57507.3002     0.10171E+04 
  57547.6279     0.10042E+04 
  57587.9556     0.98999E+03 
  57628.2833     0.97443E+03 
  57668.6110     0.95749E+03 
  57708.9387     0.93924E+03 
  57749.2664     0.91977E+03 
  57789.5941     0.89922E+03 
  57829.9218     0.87783E+03 
  57870.2495     0.85582E+03 
  57910.5772     0.83342E+03 
  57950.9049     0.81091E+03 
  57991.2326     0.78852E+03 
  58031.5603     0.76649E+03 
  58071.8880     0.74501E+03 
  58112.2157     0.72428E+03 
  58152.5434     0.70442E+03 
  58192.8711     0.68558E+03 
  58233.1988     0.66783E+03 
  58273.5265     0.65123E+03 
  58313.8542     0.63578E+03 
  58354.1819     0.62147E+03 
  58394.5096     0.60829E+03 
  58434.8373     0.59616E+03 
  58475.1650     0.58502E+03 
  58515.4927     0.57478E+03 
  58555.8204     0.56536E+03 
  58596.1481     0.55666E+03 
  58636.4758     0.54859E+03 
  58676.8035     0.54108E+03 
  58717.1312     0.53402E+03 
  58757.4589     0.52731E+03 
  58797.7866     0.52088E+03 
  58838.1143     0.51462E+03 
  58878.4420     0.50844E+03 
  58918.7697     0.50229E+03 
  58959.0974     0.49608E+03 
  58999.4251     0.48975E+03 
  59039.7528     0.48323E+03 
  59080.0805     0.47651E+03 
  59120.4082     0.46953E+03 
  59160.7359     0.46227E+03 
  59201.0636     0.45473E+03 
  59241.3913     0.44690E+03 
  59281.7190     0.43880E+03 
  59322.0467     0.43045E+03 
  59362.3744     0.42189E+03 
  59402.7021     0.41315E+03 
  59443.0298     0.40429E+03 
  59483.3575     0.39536E+03 
  59523.6852     0.38642E+03 
  59564.0129     0.37750E+03 
  59604.3406     0.36867E+03 
  59644.6683     0.35997E+03 
  59684.9960     0.35145E+03 
  59725.3237     0.34315E+03 
  59765.6514     0.33509E+03 
  59805.9791     0.32730E+03 
  59846.3068     0.31980E+03 
  59886.6345     0.31261E+03 
  59926.9622     0.30573E+03 
  59967.2899     0.29916E+03 
  60007.6176     0.29290E+03 
  60047.9453     0.28694E+03 
  60088.2730     0.28127E+03 
  60128.6007     0.27588E+03 
  60168.9284     0.27074E+03 
  60209.2561     0.26584E+03 
  60249.5838     0.26115E+03 
  60289.9115     0.25665E+03 
  60330.2392     0.25232E+03 
  60370.5669     0.24813E+03 
  60410.8946     0.24407E+03 
  60451.2223     0.24009E+03 
  60491.5500     0.23621E+03 
  60531.8777     0.23237E+03 
  60572.2054     0.22857E+03 
  60612.5331     0.22480E+03 
  60652.8608     0.22103E+03 
  60693.1885     0.21726E+03 
  60733.5162     0.21349E+03 
  60773.8439     0.20970E+03 
  60814.1716     0.20590E+03 
  60854.4993     0.20208E+03 
  60894.8270     0.19826E+03 
  60935.1547     0.19442E+03 
  60975.4824     0.19059E+03 
  61015.8101     0.18677E+03 
  61056.1378     0.18296E+03 
  61096.4655     0.17918E+03 
  61136.7932     0.17544E+03 
  61177.1209     0.17174E+03 
  61217.4486     0.16809E+03 
  61257.7763     0.16451E+03 
  61298.1040     0.16100E+03 
  61338.4317     0.15756E+03 
  61378.7594     0.15420E+03 
  61419.0871     0.15093E+03 
  61459.4148     0.14775E+03 
  61499.7425     0.14466E+03 
  61540.0702     0.14165E+03 
  61580.3979     0.13874E+03 
  61620.7256     0.13592E+03 
  61661.0533     0.13319E+03 
  61701.3810     0.13054E+03 
  61741.7087     0.12797E+03 
  61782.0364     0.12549E+03 
  61822.3641     0.12307E+03 
  61862.6918     0.12073E+03 
  61903.0195     0.11845E+03 
  61943.3472     0.11623E+03 
  61983.6749     0.11406E+03 
  62024.0026     0.11195E+03 
  62064.3303     0.10988E+03 
  62104.6580     0.10784E+03 
  62144.9857     0.10585E+03 
  62185.3134     0.10389E+03 
  62225.6411     0.10195E+03 
  62265.9688     0.10005E+03 
  62306.2965     0.98169E+02 
  62346.6242     0.96312E+02 
  62386.9519     0.94478E+02 
  62427.2796     0.92665E+02 
  62467.6073     0.90873E+02 
  62507.9350     0.89104E+02 
  62548.2627     0.87358E+02 
  62588.5904     0.85634E+02 
  62628.9181     0.83935E+02 
  62669.2458     0.82261E+02 
  62709.5735     0.80614E+02 
  62749.9012     0.78994E+02 
  62790.2289     0.77403E+02 
  62830.5566     0.75842E+02 
  62870.8843     0.74311E+02 
  62911.2120     0.72811E+02 
  62951.5397     0.71344E+02 
  62991.8674     0.69908E+02 
  63032.1951     0.68505E+02 
  63072.5228     0.67135E+02 
  63112.8505     0.65797E+02 
  63153.1782     0.64491E+02 
  63193.5059     0.63217E+02 
  63233.8336     0.61975E+02 
  63274.1613     0.60763E+02 
  63314.4890     0.59581E+02 
  63354.8167     0.58428E+02 
  63395.1444     0.57304E+02 
  63435.4721     0.56206E+02 
  63475.7998     0.55135E+02 
  63516.1275     0.54089E+02 
  63556.4552     0.53067E+02 
  63596.7829     0.52068E+02 
  63637.1106     0.51092E+02 
  63677.4383     0.50137E+02 
  63717.7660     0.49202E+02 
  63758.0937     0.48287E+02 
  63798.4214     0.47391E+02 
  63838.7491     0.46513E+02 
  63879.0768     0.45654E+02 
  63919.4045     0.44812E+02 
  63959.7322     0.43987E+02 
  64000.0599     0.43179E+02 
  64040.3876     0.42388E+02 
  64080.7153     0.41613E+02 
  64121.0430     0.40855E+02 
  64161.3707     0.40113E+02 
  64201.6984     0.39388E+02 
  64242.0261     0.38679E+02 
  64282.3538     0.37986E+02 
  64322.6815     0.37309E+02 
  64363.0092     0.36649E+02 
  64403.3369     0.36005E+02 
  64443.6646     0.35377E+02 
  64483.9923     0.34766E+02 
  64524.3200     0.34170E+02 
  64564.6477     0.33591E+02 
  64604.9754     0.33027E+02 
  64645.3031     0.32479E+02 
  64685.6308     0.31947E+02 
  64725.9585     0.31430E+02 
  64766.2862     0.30929E+02 
  64806.6139     0.30443E+02 
  64846.9416     0.29971E+02 
  64887.2693     0.29515E+02 
  64927.5970     0.29073E+02 
  64967.9247     0.28645E+02 
  65008.2524     0.28231E+02 
  65048.5801     0.27831E+02 
  65088.9078     0.27445E+02 
  65129.2355     0.27072E+02 
  65169.5632     0.26712E+02 
  65209.8909     0.26366E+02 
  65250.2186     0.26032E+02 
  65290.5463     0.25711E+02 
  65330.8740     0.25403E+02 
  65371.2017     0.25108E+02 
  65411.5294     0.24825E+02 
  65451.8571     0.24554E+02 
  65492.1848     0.24295E+02 
  65532.5125     0.24049E+02 
  65572.8402     0.23815E+02 
  65613.1679     0.23593E+02 
  65653.4956     0.23383E+02 
  65693.8233     0.23185E+02 
  65734.1510     0.22999E+02 
  65774.4787     0.22825E+02 
  65814.8064     0.22663E+02 
  65855.1341     0.22513E+02 
  65895.4618     0.22375E+02 
  65935.7895     0.22249E+02 
  65976.1172     0.22135E+02 
  66016.4449     0.22033E+02 
  66056.7726     0.21943E+02 
  66097.1003     0.21865E+02 
  66137.4280     0.21798E+02 
  66177.7557     0.21744E+02 
  66218.0834     0.21702E+02 
  66258.4111     0.21671E+02 
  66298.7388     0.21653E+02 
  66339.0665     0.21646E+02 
  66379.3942     0.21651E+02 
  66419.7219     0.21669E+02 
  66460.0496     0.21698E+02 
  66500.3773     0.21740E+02 
  66540.7050     0.21793E+02 
  66581.0327     0.21859E+02 
  66621.3604     0.21936E+02 
  66661.6881     0.22026E+02 
  66702.0158     0.22128E+02 
  66742.3435     0.22242E+02 
  66782.6712     0.22369E+02 
  66822.9989     0.22508E+02 
  66863.3266     0.22660E+02 
  66903.6543     0.22824E+02 
  66943.9820     0.23001E+02 
  66984.3097     0.23190E+02 
  67024.6374     0.23393E+02 
  67064.9651     0.23608E+02 
  67105.2928     0.23837E+02 
  67145.6205     0.24079E+02 
  67185.9482     0.24334E+02 
  67226.2759     0.24602E+02 
  67266.6036     0.24884E+02 
  67306.9313     0.25180E+02 
  67347.2590     0.25490E+02 
  67387.5867     0.25814E+02 
  67427.9144     0.26152E+02 
  67468.2421     0.26504E+02 
  67508.5698     0.26871E+02 
  67548.8975     0.27252E+02 
  67589.2252     0.27649E+02 
  67629.5529     0.28060E+02 
  67669.8806     0.28486E+02 
  67710.2083     0.28928E+02 
  67750.5360     0.29385E+02 
  67790.8637     0.29858E+02 
  67831.1914     0.30348E+02 
  67871.5191     0.30853E+02 
  67911.8468     0.31375E+02 
  67952.1745     0.31913E+02 
  67992.5022     0.32468E+02 
  68032.8299     0.33040E+02 
  68073.1576     0.33629E+02 
  68113.4853     0.34236E+02 
  68153.8130     0.34861E+02 
  68194.1407     0.35504E+02 
  68234.4684     0.36165E+02 
  68274.7961     0.36846E+02 
  68315.1238     0.37545E+02 
  68355.4515     0.38263E+02 
  68395.7792     0.39001E+02 
  68436.1069     0.39759E+02 
  68476.4346     0.40537E+02 
  68516.7623     0.41336E+02 
  68557.0900     0.42155E+02 
  68597.4177     0.42996E+02 
  68637.7454     0.43859E+02 
  68678.0731     0.44744E+02 
  68718.4008     0.45651E+02 
  68758.7285     0.46581E+02 
  68799.0562     0.47534E+02 
  68839.3839     0.48511E+02 
  68879.7116     0.49513E+02 
  68920.0393     0.50538E+02 
  68960.3670     0.51589E+02 
  69000.6947     0.52665E+02 
  69041.0224     0.53768E+02 
  69081.3501     0.54896E+02 
  69121.6778     0.56052E+02 
  69162.0055     0.57235E+02 
  69202.3332     0.58446E+02 
  69242.6609     0.59685E+02 
  69282.9886     0.60954E+02 
  69323.3163     0.62253E+02 
  69363.6440     0.63582E+02 
  69403.9717     0.64941E+02 
  69444.2994     0.66332E+02 
  69484.6271     0.67755E+02 
  69524.9548     0.69211E+02 
  69565.2825     0.70700E+02 
  69605.6102     0.72224E+02 
  69645.9379     0.73782E+02 
  69686.2656     0.75376E+02 
  69726.5933     0.77007E+02 
  69766.9210     0.78674E+02 
  69807.2487     0.80379E+02 
  69847.5764     0.82123E+02 
  69887.9041     0.83906E+02 
  69928.2318     0.85730E+02 
  69968.5595     0.87595E+02 
  70008.8872     0.89502E+02 
  70049.2149     0.91452E+02 
  70089.5426     0.93446E+02 
  70129.8703     0.95484E+02 
  70170.1980     0.97569E+02 
  70210.5257     0.99701E+02 
  70250.8534     0.10188E+03 
  70291.1811     0.10411E+03 
  70331.5088     0.10639E+03 
  70371.8365     0.10872E+03 
  70412.1642     0.11110E+03 
  70452.4919     0.11354E+03 
  70492.8196     0.11603E+03 
  70533.1473     0.11858E+03 
  70573.4750     0.12118E+03 
  70613.8027     0.12385E+03 
  70654.1304     0.12657E+03 
  70694.4581     0.12935E+03 
  70734.7858     0.13220E+03 
  70775.1135     0.13512E+03 
  70815.4412     0.13809E+03 
  70855.7689     0.14114E+03 
  70896.0966     0.14426E+03 
  70936.4243     0.14744E+03 
  70976.7520     0.15070E+03 
  71017.0797     0.15404E+03 
  71057.4074     0.15745E+03 
  71097.7351     0.16094E+03 
  71138.0628     0.16450E+03 
  71178.3905     0.16815E+03 
  71218.7182     0.17189E+03 
  71259.0459     0.17571E+03 
  71299.3736     0.17961E+03 
  71339.7013     0.18361E+03 
  71380.0290     0.18771E+03 
  71420.3567     0.19189E+03 
  71460.6844     0.19618E+03 
  71501.0121     0.20056E+03 
  71541.3398     0.20505E+03 
  71581.6675     0.20964E+03 
  71621.9952     0.21434E+03 
  71662.3229     0.21915E+03 
  71702.6506     0.22407E+03 
  71742.9783     0.22911E+03 
  71783.3060     0.23427E+03 
  71823.6337     0.23955E+03 
  71863.9614     0.24496E+03 
  71904.2891     0.25050E+03 
  71944.6168     0.25617E+03 
  71984.9445     0.26198E+03 
  72025.2722     0.26793E+03 
  72065.5999     0.27402E+03 
  72105.9276     0.28026E+03 
  72146.2553     0.28664E+03 
  72186.5830     0.29319E+03 
  72226.9107     0.29990E+03 
  72267.2384     0.30677E+03 
  72307.5661     0.31381E+03 
  72347.8938     0.32103E+03 
  72388.2215     0.32842E+03 
  72428.5492     0.33600E+03 
  72468.8769     0.34377E+03 
  72509.2046     0.35174E+03 
  72549.5323     0.35989E+03 
  72589.8600     0.36826E+03 
