  32262.1600     0.37149E+02 
  32302.4877     0.38243E+02 
  32342.8154     0.39376E+02 
  32383.1431     0.40546E+02 
  32423.4708     0.41756E+02 
  32463.7985     0.43007E+02 
  32504.1262     0.44301E+02 
  32544.4539     0.45639E+02 
  32584.7816     0.47024E+02 
  32625.1093     0.48458E+02 
  32665.4370     0.49941E+02 
  32705.7647     0.51477E+02 
  32746.0924     0.53068E+02 
  32786.4201     0.54715E+02 
  32826.7478     0.56421E+02 
  32867.0755     0.58189E+02 
  32907.4032     0.60021E+02 
  32947.7309     0.61921E+02 
  32988.0586     0.63890E+02 
  33028.3863     0.65932E+02 
  33068.7140     0.68050E+02 
  33109.0417     0.70248E+02 
  33149.3694     0.72528E+02 
  33189.6971     0.74895E+02 
  33230.0248     0.77353E+02 
  33270.3525     0.79906E+02 
  33310.6802     0.82557E+02 
  33351.0079     0.85313E+02 
  33391.3356     0.88177E+02 
  33431.6633     0.91154E+02 
  33471.9910     0.94250E+02 
  33512.3187     0.97470E+02 
  33552.6464     0.10082E+03 
  33592.9741     0.10431E+03 
  33633.3018     0.10794E+03 
  33673.6295     0.11172E+03 
  33713.9572     0.11566E+03 
  33754.2849     0.11977E+03 
  33794.6126     0.12405E+03 
  33834.9403     0.12852E+03 
  33875.2680     0.13317E+03 
  33915.5957     0.13803E+03 
  33955.9234     0.14310E+03 
  33996.2511     0.14840E+03 
  34036.5788     0.15394E+03 
  34076.9065     0.15972E+03 
  34117.2342     0.16577E+03 
  34157.5619     0.17209E+03 
  34197.8896     0.17871E+03 
  34238.2173     0.18564E+03 
  34278.5450     0.19290E+03 
  34318.8727     0.20050E+03 
  34359.2004     0.20846E+03 
  34399.5281     0.21682E+03 
  34439.8558     0.22559E+03 
  34480.1835     0.23479E+03 
  34520.5112     0.24446E+03 
  34560.8389     0.25461E+03 
  34601.1666     0.26529E+03 
  34641.4943     0.27652E+03 
  34681.8220     0.28834E+03 
  34722.1497     0.30078E+03 
  34762.4774     0.31390E+03 
  34802.8051     0.32773E+03 
  34843.1328     0.34232E+03 
  34883.4605     0.35772E+03 
  34923.7882     0.37399E+03 
  34964.1159     0.39119E+03 
  35004.4436     0.40938E+03 
  35044.7713     0.42864E+03 
  35085.0990     0.44905E+03 
  35125.4267     0.47068E+03 
  35165.7544     0.49364E+03 
  35206.0821     0.51802E+03 
  35246.4098     0.54394E+03 
  35286.7375     0.57151E+03 
  35327.0652     0.60086E+03 
  35367.3929     0.63215E+03 
  35407.7206     0.66553E+03 
  35448.0483     0.70118E+03 
  35488.3760     0.73929E+03 
  35528.7037     0.78008E+03 
  35569.0314     0.82379E+03 
  35609.3591     0.87068E+03 
  35649.6868     0.92105E+03 
  35690.0145     0.97522E+03 
  35730.3422     0.10336E+04 
  35770.6699     0.10965E+04 
  35810.9976     0.11644E+04 
  35851.3253     0.12379E+04 
  35891.6530     0.13176E+04 
  35931.9807     0.14040E+04 
  35972.3084     0.14980E+04 
  36012.6361     0.16003E+04 
  36052.9638     0.17120E+04 
  36093.2915     0.18341E+04 
  36133.6192     0.19678E+04 
  36173.9469     0.21147E+04 
  36214.2746     0.22764E+04 
  36254.6023     0.24547E+04 
  36294.9300     0.26520E+04 
  36335.2577     0.28708E+04 
  36375.5854     0.31141E+04 
  36415.9131     0.33854E+04 
  36456.2408     0.36889E+04 
  36496.5685     0.40296E+04 
  36536.8962     0.44131E+04 
  36577.2239     0.48463E+04 
  36617.5516     0.53374E+04 
  36657.8793     0.58958E+04 
  36698.2070     0.65332E+04 
  36738.5347     0.72630E+04 
  36778.8624     0.81011E+04 
  36819.1901     0.90660E+04 
  36859.5178     0.10179E+05 
  36899.8455     0.11463E+05 
  36940.1732     0.12944E+05 
  36980.5009     0.14645E+05 
  37020.8286     0.16587E+05 
  37061.1563     0.18777E+05 
  37101.4840     0.21205E+05 
  37141.8117     0.23826E+05 
  37182.1394     0.26557E+05 
  37222.4671     0.29267E+05 
  37262.7948     0.31782E+05 
  37303.1225     0.33911E+05 
  37343.4502     0.35467E+05 
  37383.7779     0.36303E+05 
  37424.1056     0.36328E+05 
  37464.4333     0.35518E+05 
  37504.7610     0.33913E+05 
  37545.0887     0.31600E+05 
  37585.4164     0.28704E+05 
  37625.7441     0.25371E+05 
  37666.0718     0.21762E+05 
  37706.3995     0.18053E+05 
  37746.7272     0.14429E+05 
  37787.0549     0.11077E+05 
  37827.3826     0.81661E+04 
  37867.7103     0.58225E+04 
  37908.0380     0.41153E+04 
  37948.3657     0.30455E+04 
  37988.6934     0.25495E+04 
  38029.0211     0.25139E+04 
  38069.3488     0.27970E+04 
  38109.6765     0.32533E+04 
  38150.0042     0.37565E+04 
  38190.3319     0.42184E+04 
  38230.6596     0.45986E+04 
  38270.9873     0.49076E+04 
  38311.3150     0.52013E+04 
  38351.6427     0.55700E+04 
  38391.9704     0.61237E+04 
  38432.2981     0.69747E+04 
  38472.6258     0.82197E+04 
  38512.9535     0.99248E+04 
  38553.2812     0.12114E+05 
  38593.6089     0.14761E+05 
  38633.9366     0.17793E+05 
  38674.2643     0.21091E+05 
  38714.5920     0.24508E+05 
  38754.9197     0.27887E+05 
  38795.2474     0.31081E+05 
  38835.5751     0.33969E+05 
  38875.9028     0.36465E+05 
  38916.2305     0.38514E+05 
  38956.5582     0.40082E+05 
  38996.8859     0.41147E+05 
  39037.2136     0.41692E+05 
  39077.5413     0.41708E+05 
  39117.8690     0.41203E+05 
  39158.1967     0.40213E+05 
  39198.5244     0.38807E+05 
  39238.8521     0.37076E+05 
  39279.1798     0.35122E+05 
  39319.5075     0.33038E+05 
  39359.8352     0.30885E+05 
  39400.1629     0.28696E+05 
  39440.4906     0.26477E+05 
  39480.8183     0.24224E+05 
  39521.1460     0.21942E+05 
  39561.4737     0.19658E+05 
  39601.8014     0.17418E+05 
  39642.1291     0.15286E+05 
  39682.4568     0.13329E+05 
  39722.7845     0.11604E+05 
  39763.1122     0.10153E+05 
  39803.4399     0.89958E+04 
  39843.7676     0.81323E+04 
  39884.0953     0.75438E+04 
  39924.4230     0.72007E+04 
  39964.7507     0.70681E+04 
  40005.0784     0.71121E+04 
  40045.4061     0.73034E+04 
  40085.7338     0.76198E+04 
  40126.0615     0.80479E+04 
  40166.3892     0.85814E+04 
  40206.7169     0.92211E+04 
  40247.0446     0.99711E+04 
  40287.3723     0.10836E+05 
  40327.7000     0.11816E+05 
  40368.0277     0.12905E+05 
  40408.3554     0.14085E+05 
  40448.6831     0.15326E+05 
  40489.0108     0.16586E+05 
  40529.3385     0.17823E+05 
  40569.6662     0.18991E+05 
  40609.9939     0.20055E+05 
  40650.3216     0.20987E+05 
  40690.6493     0.21769E+05 
  40730.9770     0.22384E+05 
  40771.3047     0.22820E+05 
  40811.6324     0.23059E+05 
  40851.9601     0.23089E+05 
  40892.2878     0.22903E+05 
  40932.6155     0.22507E+05 
  40972.9432     0.21922E+05 
  41013.2709     0.21185E+05 
  41053.5986     0.20342E+05 
  41093.9263     0.19436E+05 
  41134.2540     0.18505E+05 
  41174.5817     0.17574E+05 
  41214.9094     0.16656E+05 
  41255.2371     0.15755E+05 
  41295.5648     0.14872E+05 
  41335.8925     0.14010E+05 
  41376.2202     0.13173E+05 
  41416.5479     0.12371E+05 
  41456.8756     0.11615E+05 
  41497.2033     0.10918E+05 
  41537.5310     0.10291E+05 
  41577.8587     0.97429E+04 
  41618.1864     0.92777E+04 
  41658.5141     0.88971E+04 
  41698.8418     0.85997E+04 
  41739.1695     0.83815E+04 
  41779.4972     0.82368E+04 
  41819.8249     0.81588E+04 
  41860.1526     0.81402E+04 
  41900.4803     0.81735E+04 
  41940.8080     0.82515E+04 
  41981.1357     0.83672E+04 
  42021.4634     0.85148E+04 
  42061.7911     0.86888E+04 
  42102.1188     0.88839E+04 
  42142.4465     0.90941E+04 
  42182.7742     0.93122E+04 
  42223.1019     0.95295E+04 
  42263.4296     0.97361E+04 
  42303.7573     0.99226E+04 
  42344.0850     0.10081E+05 
  42384.4127     0.10207E+05 
  42424.7404     0.10298E+05 
  42465.0681     0.10353E+05 
  42505.3958     0.10374E+05 
  42545.7235     0.10359E+05 
  42586.0512     0.10308E+05 
  42626.3789     0.10219E+05 
  42666.7066     0.10090E+05 
  42707.0343     0.99210E+04 
  42747.3620     0.97149E+04 
  42787.6897     0.94775E+04 
  42828.0174     0.92168E+04 
  42868.3451     0.89411E+04 
  42908.6728     0.86583E+04 
  42949.0005     0.83742E+04 
  42989.3282     0.80932E+04 
  43029.6559     0.78180E+04 
  43069.9836     0.75501E+04 
  43110.3113     0.72909E+04 
  43150.6390     0.70417E+04 
  43190.9667     0.68042E+04 
  43231.2944     0.65798E+04 
  43271.6221     0.63704E+04 
  43311.9498     0.61772E+04 
  43352.2775     0.60013E+04 
  43392.6052     0.58434E+04 
  43432.9329     0.57034E+04 
  43473.2606     0.55808E+04 
  43513.5883     0.54751E+04 
  43553.9160     0.53847E+04 
  43594.2437     0.53086E+04 
  43634.5714     0.52448E+04 
  43674.8991     0.51921E+04 
  43715.2268     0.51482E+04 
  43755.5545     0.51118E+04 
  43795.8822     0.50815E+04 
  43836.2099     0.50561E+04 
  43876.5376     0.50345E+04 
  43916.8653     0.50154E+04 
  43957.1930     0.49976E+04 
  43997.5207     0.49793E+04 
  44037.8484     0.49593E+04 
  44078.1761     0.49357E+04 
  44118.5038     0.49079E+04 
  44158.8315     0.48750E+04 
  44199.1592     0.48374E+04 
  44239.4869     0.47951E+04 
  44279.8146     0.47489E+04 
  44320.1423     0.46990E+04 
  44360.4700     0.46460E+04 
  44400.7977     0.45898E+04 
  44441.1254     0.45306E+04 
  44481.4531     0.44686E+04 
  44521.7808     0.44043E+04 
  44562.1085     0.43386E+04 
  44602.4362     0.42726E+04 
  44642.7639     0.42075E+04 
  44683.0916     0.41443E+04 
  44723.4193     0.40841E+04 
  44763.7470     0.40275E+04 
  44804.0747     0.39753E+04 
  44844.4024     0.39279E+04 
  44884.7301     0.38857E+04 
  44925.0578     0.38493E+04 
  44965.3855     0.38190E+04 
  45005.7132     0.37954E+04 
  45046.0409     0.37788E+04 
  45086.3686     0.37699E+04 
  45126.6963     0.37690E+04 
  45167.0240     0.37767E+04 
  45207.3517     0.37934E+04 
  45247.6794     0.38197E+04 
  45288.0071     0.38562E+04 
  45328.3348     0.39035E+04 
  45368.6625     0.39625E+04 
  45408.9902     0.40339E+04 
  45449.3179     0.41188E+04 
  45489.6456     0.42185E+04 
  45529.9733     0.43345E+04 
  45570.3010     0.44687E+04 
  45610.6287     0.46234E+04 
  45650.9564     0.48012E+04 
  45691.2841     0.50051E+04 
  45731.6118     0.52385E+04 
  45771.9395     0.55052E+04 
  45812.2672     0.58093E+04 
  45852.5949     0.61551E+04 
  45892.9226     0.65465E+04 
  45933.2503     0.69863E+04 
  45973.5780     0.74752E+04 
  46013.9057     0.80095E+04 
  46054.2334     0.85785E+04 
  46094.5611     0.91611E+04 
  46134.8888     0.97231E+04 
  46175.2165     0.10216E+05 
  46215.5442     0.10581E+05 
  46255.8719     0.10760E+05 
  46296.1996     0.10708E+05 
  46336.5273     0.10409E+05 
  46376.8550     0.98784E+04 
  46417.1827     0.91596E+04 
  46457.5104     0.83083E+04 
  46497.8381     0.73807E+04 
  46538.1658     0.64259E+04 
  46578.4935     0.54848E+04 
  46618.8212     0.45932E+04 
  46659.1489     0.37868E+04 
  46699.4766     0.31054E+04 
  46739.8043     0.25929E+04 
  46780.1320     0.22895E+04 
  46820.4597     0.22203E+04 
  46860.7874     0.23840E+04 
  46901.1151     0.27495E+04 
  46941.4428     0.32595E+04 
  46981.7705     0.38401E+04 
  47022.0982     0.44134E+04 
  47062.4259     0.49118E+04 
  47102.7536     0.52919E+04 
  47143.0813     0.55437E+04 
  47183.4090     0.56899E+04 
  47223.7367     0.57743E+04 
  47264.0644     0.58464E+04 
  47304.3921     0.59491E+04 
  47344.7198     0.61148E+04 
  47385.0475     0.63689E+04 
  47425.3752     0.67375E+04 
  47465.7029     0.72535E+04 
  47506.0306     0.79604E+04 
  47546.3583     0.89111E+04 
  47586.6860     0.10156E+05 
  47627.0137     0.11728E+05 
  47667.3414     0.13616E+05 
  47707.6691     0.15753E+05 
  47747.9968     0.18009E+05 
  47788.3245     0.20202E+05 
  47828.6522     0.22127E+05 
  47868.9799     0.23602E+05 
  47909.3076     0.24498E+05 
  47949.6353     0.24767E+05 
  47989.9630     0.24432E+05 
  48030.2907     0.23565E+05 
  48070.6184     0.22256E+05 
  48110.9461     0.20593E+05 
  48151.2738     0.18650E+05 
  48191.6015     0.16499E+05 
  48231.9292     0.14216E+05 
  48272.2569     0.11902E+05 
  48312.5846     0.96803E+04 
  48352.9123     0.76924E+04 
  48393.2400     0.60687E+04 
  48433.5677     0.49050E+04 
  48473.8954     0.42447E+04 
  48514.2231     0.40694E+04 
  48554.5508     0.43014E+04 
  48594.8785     0.48155E+04 
  48635.2062     0.54627E+04 
  48675.5339     0.61023E+04 
  48715.8616     0.66306E+04 
  48756.1893     0.69944E+04 
  48796.5170     0.71869E+04 
  48836.8447     0.72298E+04 
  48877.1724     0.71558E+04 
  48917.5001     0.69973E+04 
  48957.8278     0.67851E+04 
  48998.1555     0.65530E+04 
  49038.4832     0.63460E+04 
  49078.8109     0.62273E+04 
  49119.1386     0.62802E+04 
  49159.4663     0.66002E+04 
  49199.7940     0.72766E+04 
  49240.1217     0.83688E+04 
  49280.4494     0.98832E+04 
  49320.7771     0.11761E+05 
  49361.1048     0.13878E+05 
  49401.4325     0.16067E+05 
  49441.7602     0.18146E+05 
  49482.0879     0.19958E+05 
  49522.4156     0.21389E+05 
  49562.7433     0.22383E+05 
  49603.0710     0.22921E+05 
  49643.3987     0.23012E+05 
  49683.7264     0.22673E+05 
  49724.0541     0.21922E+05 
  49764.3818     0.20788E+05 
  49804.7095     0.19318E+05 
  49845.0372     0.17585E+05 
  49885.3649     0.15696E+05 
  49925.6926     0.13775E+05 
  49966.0203     0.11958E+05 
  50006.3480     0.10367E+05 
  50046.6757     0.90994E+04 
  50087.0034     0.82101E+04 
  50127.3311     0.77023E+04 
  50167.6588     0.75283E+04 
  50207.9865     0.76019E+04 
  50248.3142     0.78215E+04 
  50288.6419     0.80943E+04 
  50328.9696     0.83501E+04 
  50369.2973     0.85450E+04 
  50409.6250     0.86550E+04 
  50449.9527     0.86681E+04 
  50490.2804     0.85785E+04 
  50530.6081     0.83852E+04 
  50570.9358     0.80939E+04 
  50611.2635     0.77204E+04 
  50651.5912     0.72961E+04 
  50691.9189     0.68695E+04 
  50732.2466     0.65047E+04 
  50772.5743     0.62721E+04 
  50812.9020     0.62360E+04 
  50853.2297     0.64411E+04 
  50893.5574     0.69008E+04 
  50933.8851     0.75928E+04 
  50974.2128     0.84622E+04 
  51014.5405     0.94345E+04 
  51054.8682     0.10431E+05 
  51095.1959     0.11383E+05 
  51135.5236     0.12235E+05 
  51175.8513     0.12947E+05 
  51216.1790     0.13489E+05 
  51256.5067     0.13836E+05 
  51296.8344     0.13970E+05 
  51337.1621     0.13882E+05 
  51377.4898     0.13576E+05 
  51417.8175     0.13071E+05 
  51458.1452     0.12403E+05 
  51498.4729     0.11622E+05 
  51538.8006     0.10788E+05 
  51579.1283     0.99647E+04 
  51619.4560     0.92118E+04 
  51659.7837     0.85757E+04 
  51700.1114     0.80823E+04 
  51740.4391     0.77345E+04 
  51780.7668     0.75156E+04 
  51821.0945     0.73973E+04 
  51861.4222     0.73481E+04 
  51901.7499     0.73396E+04 
  51942.0776     0.73479E+04 
  51982.4053     0.73534E+04 
  52022.7330     0.73399E+04 
  52063.0607     0.72934E+04 
  52103.3884     0.72029E+04 
  52143.7161     0.70614E+04 
  52184.0438     0.68672E+04 
  52224.3715     0.66258E+04 
  52264.6992     0.63508E+04 
  52305.0269     0.60638E+04 
  52345.3546     0.57917E+04 
  52385.6823     0.55633E+04 
  52426.0100     0.54036E+04 
  52466.3377     0.53293E+04 
  52506.6654     0.53457E+04 
  52546.9931     0.54462E+04 
  52587.3208     0.56158E+04 
  52627.6485     0.58349E+04 
  52667.9762     0.60829E+04 
  52708.3039     0.63406E+04 
  52748.6316     0.65896E+04 
  52788.9593     0.68132E+04 
  52829.2870     0.69956E+04 
  52869.6147     0.71232E+04 
  52909.9424     0.71861E+04 
  52950.2701     0.71786E+04 
  52990.5978     0.71002E+04 
  53030.9255     0.69555E+04 
  53071.2532     0.67551E+04 
  53111.5809     0.65140E+04 
  53151.9086     0.62507E+04 
  53192.2363     0.59843E+04 
  53232.5640     0.57320E+04 
  53272.8917     0.55060E+04 
  53313.2194     0.53128E+04 
  53353.5471     0.51534E+04 
  53393.8748     0.50253E+04 
  53434.2025     0.49239E+04 
  53474.5302     0.48437E+04 
  53514.8579     0.47789E+04 
  53555.1856     0.47234E+04 
  53595.5133     0.46709E+04 
  53635.8410     0.46157E+04 
  53676.1687     0.45526E+04 
  53716.4964     0.44775E+04 
  53756.8241     0.43878E+04 
  53797.1518     0.42829E+04 
  53837.4795     0.41648E+04 
  53877.8072     0.40376E+04 
  53918.1349     0.39078E+04 
  53958.4626     0.37829E+04 
  53998.7903     0.36701E+04 
  54039.1180     0.35752E+04 
  54079.4457     0.35016E+04 
  54119.7734     0.34500E+04 
  54160.1011     0.34193E+04 
  54200.4288     0.34067E+04 
  54240.7565     0.34090E+04 
  54281.0842     0.34220E+04 
  54321.4119     0.34414E+04 
  54361.7396     0.34624E+04 
  54402.0673     0.34804E+04 
  54442.3950     0.34909E+04 
  54482.7227     0.34905E+04 
  54523.0504     0.34764E+04 
  54563.3781     0.34471E+04 
  54603.7058     0.34021E+04 
  54644.0335     0.33427E+04 
  54684.3612     0.32712E+04 
  54724.6889     0.31913E+04 
  54765.0166     0.31068E+04 
  54805.3443     0.30216E+04 
  54845.6720     0.29388E+04 
  54885.9997     0.28605E+04 
  54926.3274     0.27880E+04 
  54966.6551     0.27216E+04 
  55006.9828     0.26616E+04 
  55047.3105     0.26073E+04 
  55087.6382     0.25579E+04 
  55127.9659     0.25122E+04 
  55168.2936     0.24690E+04 
  55208.6213     0.24269E+04 
  55248.9490     0.23847E+04 
  55289.2767     0.23411E+04 
  55329.6044     0.22953E+04 
  55369.9321     0.22470E+04 
  55410.2598     0.21961E+04 
  55450.5875     0.21433E+04 
  55490.9152     0.20896E+04 
  55531.2429     0.20364E+04 
  55571.5706     0.19851E+04 
  55611.8983     0.19368E+04 
  55652.2260     0.18925E+04 
  55692.5537     0.18525E+04 
  55732.8814     0.18169E+04 
  55773.2091     0.17858E+04 
  55813.5368     0.17586E+04 
  55853.8645     0.17349E+04 
  55894.1922     0.17137E+04 
  55934.5199     0.16944E+04 
  55974.8476     0.16758E+04 
  56015.1753     0.16572E+04 
  56055.5030     0.16377E+04 
  56095.8307     0.16167E+04 
  56136.1584     0.15936E+04 
  56176.4861     0.15682E+04 
  56216.8138     0.15405E+04 
  56257.1415     0.15109E+04 
  56297.4692     0.14797E+04 
  56337.7969     0.14476E+04 
  56378.1246     0.14152E+04 
  56418.4523     0.13831E+04 
  56458.7800     0.13516E+04 
  56499.1077     0.13210E+04 
  56539.4354     0.12916E+04 
  56579.7631     0.12635E+04 
  56620.0908     0.12367E+04 
  56660.4185     0.12112E+04 
  56700.7462     0.11866E+04 
  56741.0739     0.11629E+04 
  56781.4016     0.11399E+04 
  56821.7293     0.11172E+04 
  56862.0570     0.10947E+04 
  56902.3847     0.10723E+04 
  56942.7124     0.10498E+04 
  56983.0401     0.10271E+04 
  57023.3678     0.10044E+04 
  57063.6955     0.98178E+03 
  57104.0232     0.95946E+03 
  57144.3509     0.93761E+03 
  57184.6786     0.91643E+03 
  57225.0063     0.89604E+03 
  57265.3340     0.87654E+03 
  57305.6617     0.85799E+03 
  57345.9894     0.84040E+03 
  57386.3171     0.82374E+03 
  57426.6448     0.80794E+03 
  57466.9725     0.79287E+03 
  57507.3002     0.77841E+03 
  57547.6279     0.76441E+03 
  57587.9556     0.75073E+03 
  57628.2833     0.73723E+03 
  57668.6110     0.72380E+03 
  57708.9387     0.71032E+03 
  57749.2664     0.69674E+03 
  57789.5941     0.68305E+03 
  57829.9218     0.66928E+03 
  57870.2495     0.65547E+03 
  57910.5772     0.64170E+03 
  57950.9049     0.62802E+03 
  57991.2326     0.61453E+03 
  58031.5603     0.60128E+03 
  58071.8880     0.58830E+03 
  58112.2157     0.57565E+03 
  58152.5434     0.56334E+03 
  58192.8711     0.55139E+03 
  58233.1988     0.53977E+03 
  58273.5265     0.52848E+03 
  58313.8542     0.51748E+03 
  58354.1819     0.50673E+03 
  58394.5096     0.49621E+03 
  58434.8373     0.48588E+03 
  58475.1650     0.47572E+03 
  58515.4927     0.46569E+03 
  58555.8204     0.45581E+03 
  58596.1481     0.44607E+03 
  58636.4758     0.43648E+03 
  58676.8035     0.42707E+03 
  58717.1312     0.41786E+03 
  58757.4589     0.40887E+03 
  58797.7866     0.40011E+03 
  58838.1143     0.39159E+03 
  58878.4420     0.38333E+03 
  58918.7697     0.37533E+03 
  58959.0974     0.36757E+03 
  58999.4251     0.36005E+03 
  59039.7528     0.35275E+03 
  59080.0805     0.34565E+03 
  59120.4082     0.33873E+03 
  59160.7359     0.33197E+03 
  59201.0636     0.32535E+03 
  59241.3913     0.31885E+03 
  59281.7190     0.31245E+03 
  59322.0467     0.30614E+03 
  59362.3744     0.29991E+03 
  59402.7021     0.29378E+03 
  59443.0298     0.28774E+03 
  59483.3575     0.28180E+03 
  59523.6852     0.27596E+03 
  59564.0129     0.27022E+03 
  59604.3406     0.26460E+03 
  59644.6683     0.25910E+03 
  59684.9960     0.25372E+03 
  59725.3237     0.24847E+03 
  59765.6514     0.24334E+03 
  59805.9791     0.23833E+03 
  59846.3068     0.23344E+03 
  59886.6345     0.22866E+03 
  59926.9622     0.22398E+03 
  59967.2899     0.21941E+03 
  60007.6176     0.21493E+03 
  60047.9453     0.21054E+03 
  60088.2730     0.20623E+03 
  60128.6007     0.20201E+03 
  60168.9284     0.19787E+03 
  60209.2561     0.19382E+03 
  60249.5838     0.18985E+03 
  60289.9115     0.18597E+03 
  60330.2392     0.18217E+03 
  60370.5669     0.17846E+03 
  60410.8946     0.17483E+03 
  60451.2223     0.17129E+03 
  60491.5500     0.16784E+03 
  60531.8777     0.16447E+03 
  60572.2054     0.16118E+03 
  60612.5331     0.15797E+03 
  60652.8608     0.15484E+03 
  60693.1885     0.15177E+03 
  60733.5162     0.14877E+03 
  60773.8439     0.14584E+03 
  60814.1716     0.14296E+03 
  60854.4993     0.14014E+03 
  60894.8270     0.13738E+03 
  60935.1547     0.13467E+03 
  60975.4824     0.13201E+03 
  61015.8101     0.12940E+03 
  61056.1378     0.12685E+03 
  61096.4655     0.12435E+03 
  61136.7932     0.12190E+03 
  61177.1209     0.11950E+03 
  61217.4486     0.11715E+03 
  61257.7763     0.11485E+03 
  61298.1040     0.11260E+03 
  61338.4317     0.11041E+03 
  61378.7594     0.10825E+03 
  61419.0871     0.10615E+03 
  61459.4148     0.10409E+03 
  61499.7425     0.10207E+03 
  61540.0702     0.10010E+03 
  61580.3979     0.98165E+02 
  61620.7256     0.96273E+02 
  61661.0533     0.94419E+02 
  61701.3810     0.92605E+02 
  61741.7087     0.90827E+02 
  61782.0364     0.89087E+02 
  61822.3641     0.87384E+02 
  61862.6918     0.85716E+02 
  61903.0195     0.84084E+02 
  61943.3472     0.82487E+02 
  61983.6749     0.80925E+02 
  62024.0026     0.79396E+02 
  62064.3303     0.77901E+02 
  62104.6580     0.76438E+02 
  62144.9857     0.75007E+02 
  62185.3134     0.73607E+02 
  62225.6411     0.72237E+02 
  62265.9688     0.70897E+02 
  62306.2965     0.69585E+02 
  62346.6242     0.68300E+02 
  62386.9519     0.67042E+02 
  62427.2796     0.65810E+02 
  62467.6073     0.64604E+02 
  62507.9350     0.63423E+02 
  62548.2627     0.62267E+02 
  62588.5904     0.61134E+02 
  62628.9181     0.60025E+02 
  62669.2458     0.58940E+02 
  62709.5735     0.57878E+02 
  62749.9012     0.56838E+02 
  62790.2289     0.55820E+02 
  62830.5566     0.54824E+02 
  62870.8843     0.53850E+02 
  62911.2120     0.52897E+02 
  62951.5397     0.51965E+02 
  62991.8674     0.51052E+02 
  63032.1951     0.50160E+02 
  63072.5228     0.49287E+02 
  63112.8505     0.48433E+02 
  63153.1782     0.47598E+02 
  63193.5059     0.46781E+02 
  63233.8336     0.45982E+02 
  63274.1613     0.45201E+02 
  63314.4890     0.44437E+02 
  63354.8167     0.43691E+02 
  63395.1444     0.42961E+02 
  63435.4721     0.42247E+02 
  63475.7998     0.41550E+02 
  63516.1275     0.40869E+02 
  63556.4552     0.40204E+02 
  63596.7829     0.39554E+02 
  63637.1106     0.38920E+02 
  63677.4383     0.38300E+02 
  63717.7660     0.37696E+02 
  63758.0937     0.37106E+02 
  63798.4214     0.36530E+02 
  63838.7491     0.35968E+02 
  63879.0768     0.35420E+02 
  63919.4045     0.34886E+02 
  63959.7322     0.34365E+02 
  64000.0599     0.33857E+02 
  64040.3876     0.33363E+02 
  64080.7153     0.32880E+02 
  64121.0430     0.32411E+02 
  64161.3707     0.31954E+02 
  64201.6984     0.31510E+02 
  64242.0261     0.31078E+02 
  64282.3538     0.30657E+02 
  64322.6815     0.30249E+02 
  64363.0092     0.29852E+02 
  64403.3369     0.29467E+02 
  64443.6646     0.29094E+02 
  64483.9923     0.28732E+02 
  64524.3200     0.28381E+02 
  64564.6477     0.28042E+02 
  64604.9754     0.27713E+02 
  64645.3031     0.27395E+02 
  64685.6308     0.27089E+02 
  64725.9585     0.26793E+02 
  64766.2862     0.26507E+02 
  64806.6139     0.26232E+02 
  64846.9416     0.25968E+02 
  64887.2693     0.25714E+02 
  64927.5970     0.25470E+02 
  64967.9247     0.25237E+02 
  65008.2524     0.25013E+02 
  65048.5801     0.24800E+02 
  65088.9078     0.24597E+02 
  65129.2355     0.24404E+02 
  65169.5632     0.24221E+02 
  65209.8909     0.24048E+02 
  65250.2186     0.23884E+02 
  65290.5463     0.23731E+02 
  65330.8740     0.23587E+02 
  65371.2017     0.23453E+02 
  65411.5294     0.23329E+02 
  65451.8571     0.23214E+02 
  65492.1848     0.23109E+02 
  65532.5125     0.23014E+02 
  65572.8402     0.22929E+02 
  65613.1679     0.22853E+02 
  65653.4956     0.22787E+02 
  65693.8233     0.22730E+02 
  65734.1510     0.22683E+02 
  65774.4787     0.22646E+02 
  65814.8064     0.22618E+02 
  65855.1341     0.22600E+02 
  65895.4618     0.22592E+02 
  65935.7895     0.22593E+02 
  65976.1172     0.22604E+02 
  66016.4449     0.22625E+02 
  66056.7726     0.22656E+02 
  66097.1003     0.22696E+02 
  66137.4280     0.22746E+02 
  66177.7557     0.22806E+02 
  66218.0834     0.22876E+02 
  66258.4111     0.22957E+02 
  66298.7388     0.23047E+02 
  66339.0665     0.23147E+02 
  66379.3942     0.23257E+02 
  66419.7219     0.23378E+02 
  66460.0496     0.23509E+02 
  66500.3773     0.23650E+02 
  66540.7050     0.23802E+02 
  66581.0327     0.23964E+02 
  66621.3604     0.24137E+02 
  66661.6881     0.24320E+02 
  66702.0158     0.24514E+02 
  66742.3435     0.24720E+02 
  66782.6712     0.24936E+02 
  66822.9989     0.25163E+02 
  66863.3266     0.25401E+02 
  66903.6543     0.25651E+02 
  66943.9820     0.25912E+02 
  66984.3097     0.26184E+02 
  67024.6374     0.26468E+02 
  67064.9651     0.26764E+02 
  67105.2928     0.27071E+02 
  67145.6205     0.27391E+02 
  67185.9482     0.27723E+02 
  67226.2759     0.28067E+02 
  67266.6036     0.28424E+02 
  67306.9313     0.28793E+02 
  67347.2590     0.29175E+02 
  67387.5867     0.29570E+02 
  67427.9144     0.29978E+02 
  67468.2421     0.30400E+02 
  67508.5698     0.30834E+02 
  67548.8975     0.31283E+02 
  67589.2252     0.31745E+02 
  67629.5529     0.32222E+02 
  67669.8806     0.32712E+02 
  67710.2083     0.33217E+02 
  67750.5360     0.33737E+02 
  67790.8637     0.34271E+02 
  67831.1914     0.34821E+02 
  67871.5191     0.35386E+02 
  67911.8468     0.35967E+02 
  67952.1745     0.36563E+02 
  67992.5022     0.37175E+02 
  68032.8299     0.37804E+02 
  68073.1576     0.38450E+02 
  68113.4853     0.39112E+02 
  68153.8130     0.39791E+02 
  68194.1407     0.40488E+02 
  68234.4684     0.41202E+02 
  68274.7961     0.41935E+02 
  68315.1238     0.42686E+02 
  68355.4515     0.43455E+02 
  68395.7792     0.44243E+02 
  68436.1069     0.45051E+02 
  68476.4346     0.45878E+02 
  68516.7623     0.46726E+02 
  68557.0900     0.47593E+02 
  68597.4177     0.48482E+02 
  68637.7454     0.49391E+02 
  68678.0731     0.50322E+02 
  68718.4008     0.51275E+02 
  68758.7285     0.52250E+02 
  68799.0562     0.53248E+02 
  68839.3839     0.54269E+02 
  68879.7116     0.55313E+02 
  68920.0393     0.56382E+02 
  68960.3670     0.57475E+02 
  69000.6947     0.58593E+02 
  69041.0224     0.59736E+02 
  69081.3501     0.60905E+02 
  69121.6778     0.62101E+02 
  69162.0055     0.63324E+02 
  69202.3332     0.64574E+02 
  69242.6609     0.65852E+02 
  69282.9886     0.67159E+02 
  69323.3163     0.68495E+02 
  69363.6440     0.69861E+02 
  69403.9717     0.71258E+02 
  69444.2994     0.72685E+02 
  69484.6271     0.74144E+02 
  69524.9548     0.75635E+02 
  69565.2825     0.77159E+02 
  69605.6102     0.78718E+02 
  69645.9379     0.80310E+02 
  69686.2656     0.81938E+02 
  69726.5933     0.83601E+02 
  69766.9210     0.85301E+02 
  69807.2487     0.87039E+02 
  69847.5764     0.88814E+02 
  69887.9041     0.90629E+02 
  69928.2318     0.92484E+02 
  69968.5595     0.94379E+02 
  70008.8872     0.96317E+02 
  70049.2149     0.98296E+02 
  70089.5426     0.10032E+03 
  70129.8703     0.10239E+03 
  70170.1980     0.10450E+03 
  70210.5257     0.10666E+03 
  70250.8534     0.10887E+03 
  70291.1811     0.11112E+03 
  70331.5088     0.11343E+03 
  70371.8365     0.11579E+03 
  70412.1642     0.11819E+03 
  70452.4919     0.12066E+03 
  70492.8196     0.12317E+03 
  70533.1473     0.12575E+03 
  70573.4750     0.12837E+03 
  70613.8027     0.13106E+03 
  70654.1304     0.13381E+03 
  70694.4581     0.13662E+03 
  70734.7858     0.13949E+03 
  70775.1135     0.14242E+03 
  70815.4412     0.14542E+03 
  70855.7689     0.14849E+03 
  70896.0966     0.15163E+03 
  70936.4243     0.15483E+03 
  70976.7520     0.15811E+03 
  71017.0797     0.16147E+03 
  71057.4074     0.16490E+03 
  71097.7351     0.16840E+03 
  71138.0628     0.17199E+03 
  71178.3905     0.17565E+03 
  71218.7182     0.17941E+03 
  71259.0459     0.18324E+03 
  71299.3736     0.18717E+03 
  71339.7013     0.19118E+03 
  71380.0290     0.19529E+03 
  71420.3567     0.19949E+03 
  71460.6844     0.20378E+03 
  71501.0121     0.20818E+03 
  71541.3398     0.21268E+03 
  71581.6675     0.21728E+03 
  71621.9952     0.22199E+03 
  71662.3229     0.22682E+03 
  71702.6506     0.23175E+03 
  71742.9783     0.23680E+03 
  71783.3060     0.24197E+03 
  71823.6337     0.24726E+03 
  71863.9614     0.25268E+03 
  71904.2891     0.25822E+03 
  71944.6168     0.26390E+03 
  71984.9445     0.26971E+03 
  72025.2722     0.27566E+03 
  72065.5999     0.28176E+03 
  72105.9276     0.28800E+03 
  72146.2553     0.29439E+03 
  72186.5830     0.30094E+03 
  72226.9107     0.30765E+03 
  72267.2384     0.31452E+03 
  72307.5661     0.32156E+03 
  72347.8938     0.32879E+03 
  72388.2215     0.33618E+03 
  72428.5492     0.34375E+03 
  72468.8769     0.35152E+03 
  72509.2046     0.35948E+03 
  72549.5323     0.36763E+03 
  72589.8600     0.37599E+03 
