  32262.1600     0.37146E+02 
  32302.4877     0.38241E+02 
  32342.8154     0.39373E+02 
  32383.1431     0.40543E+02 
  32423.4708     0.41753E+02 
  32463.7985     0.43004E+02 
  32504.1262     0.44297E+02 
  32544.4539     0.45636E+02 
  32584.7816     0.47021E+02 
  32625.1093     0.48454E+02 
  32665.4370     0.49937E+02 
  32705.7647     0.51473E+02 
  32746.0924     0.53063E+02 
  32786.4201     0.54710E+02 
  32826.7478     0.56416E+02 
  32867.0755     0.58184E+02 
  32907.4032     0.60015E+02 
  32947.7309     0.61915E+02 
  32988.0586     0.63884E+02 
  33028.3863     0.65925E+02 
  33068.7140     0.68043E+02 
  33109.0417     0.70241E+02 
  33149.3694     0.72521E+02 
  33189.6971     0.74887E+02 
  33230.0248     0.77345E+02 
  33270.3525     0.79897E+02 
  33310.6802     0.82549E+02 
  33351.0079     0.85304E+02 
  33391.3356     0.88167E+02 
  33431.6633     0.91144E+02 
  33471.9910     0.94239E+02 
  33512.3187     0.97459E+02 
  33552.6464     0.10081E+03 
  33592.9741     0.10430E+03 
  33633.3018     0.10793E+03 
  33673.6295     0.11171E+03 
  33713.9572     0.11565E+03 
  33754.2849     0.11976E+03 
  33794.6126     0.12404E+03 
  33834.9403     0.12850E+03 
  33875.2680     0.13316E+03 
  33915.5957     0.13802E+03 
  33955.9234     0.14309E+03 
  33996.2511     0.14838E+03 
  34036.5788     0.15392E+03 
  34076.9065     0.15970E+03 
  34117.2342     0.16575E+03 
  34157.5619     0.17207E+03 
  34197.8896     0.17869E+03 
  34238.2173     0.18562E+03 
  34278.5450     0.19287E+03 
  34318.8727     0.20047E+03 
  34359.2004     0.20844E+03 
  34399.5281     0.21680E+03 
  34439.8558     0.22556E+03 
  34480.1835     0.23476E+03 
  34520.5112     0.24443E+03 
  34560.8389     0.25458E+03 
  34601.1666     0.26526E+03 
  34641.4943     0.27649E+03 
  34681.8220     0.28831E+03 
  34722.1497     0.30075E+03 
  34762.4774     0.31386E+03 
  34802.8051     0.32769E+03 
  34843.1328     0.34228E+03 
  34883.4605     0.35768E+03 
  34923.7882     0.37395E+03 
  34964.1159     0.39115E+03 
  35004.4436     0.40934E+03 
  35044.7713     0.42860E+03 
  35085.0990     0.44900E+03 
  35125.4267     0.47064E+03 
  35165.7544     0.49359E+03 
  35206.0821     0.51797E+03 
  35246.4098     0.54388E+03 
  35286.7375     0.57145E+03 
  35327.0652     0.60080E+03 
  35367.3929     0.63209E+03 
  35407.7206     0.66546E+03 
  35448.0483     0.70111E+03 
  35488.3760     0.73922E+03 
  35528.7037     0.78001E+03 
  35569.0314     0.82372E+03 
  35609.3591     0.87061E+03 
  35649.6868     0.92097E+03 
  35690.0145     0.97514E+03 
  35730.3422     0.10335E+04 
  35770.6699     0.10964E+04 
  35810.9976     0.11643E+04 
  35851.3253     0.12378E+04 
  35891.6530     0.13175E+04 
  35931.9807     0.14039E+04 
  35972.3084     0.14979E+04 
  36012.6361     0.16002E+04 
  36052.9638     0.17118E+04 
  36093.2915     0.18339E+04 
  36133.6192     0.19677E+04 
  36173.9469     0.21146E+04 
  36214.2746     0.22762E+04 
  36254.6023     0.24546E+04 
  36294.9300     0.26518E+04 
  36335.2577     0.28706E+04 
  36375.5854     0.31139E+04 
  36415.9131     0.33852E+04 
  36456.2408     0.36888E+04 
  36496.5685     0.40294E+04 
  36536.8962     0.44129E+04 
  36577.2239     0.48461E+04 
  36617.5516     0.53371E+04 
  36657.8793     0.58956E+04 
  36698.2070     0.65330E+04 
  36738.5347     0.72627E+04 
  36778.8624     0.81008E+04 
  36819.1901     0.90657E+04 
  36859.5178     0.10178E+05 
  36899.8455     0.11463E+05 
  36940.1732     0.12944E+05 
  36980.5009     0.14645E+05 
  37020.8286     0.16587E+05 
  37061.1563     0.18777E+05 
  37101.4840     0.21204E+05 
  37141.8117     0.23826E+05 
  37182.1394     0.26557E+05 
  37222.4671     0.29266E+05 
  37262.7948     0.31782E+05 
  37303.1225     0.33910E+05 
  37343.4502     0.35467E+05 
  37383.7779     0.36303E+05 
  37424.1056     0.36328E+05 
  37464.4333     0.35518E+05 
  37504.7610     0.33913E+05 
  37545.0887     0.31601E+05 
  37585.4164     0.28705E+05 
  37625.7441     0.25371E+05 
  37666.0718     0.21762E+05 
  37706.3995     0.18053E+05 
  37746.7272     0.14429E+05 
  37787.0549     0.11078E+05 
  37827.3826     0.81664E+04 
  37867.7103     0.58228E+04 
  37908.0380     0.41155E+04 
  37948.3657     0.30457E+04 
  37988.6934     0.25496E+04 
  38029.0211     0.25140E+04 
  38069.3488     0.27971E+04 
  38109.6765     0.32533E+04 
  38150.0042     0.37566E+04 
  38190.3319     0.42185E+04 
  38230.6596     0.45986E+04 
  38270.9873     0.49077E+04 
  38311.3150     0.52013E+04 
  38351.6427     0.55701E+04 
  38391.9704     0.61237E+04 
  38432.2981     0.69746E+04 
  38472.6258     0.82196E+04 
  38512.9535     0.99247E+04 
  38553.2812     0.12114E+05 
  38593.6089     0.14761E+05 
  38633.9366     0.17793E+05 
  38674.2643     0.21091E+05 
  38714.5920     0.24508E+05 
  38754.9197     0.27888E+05 
  38795.2474     0.31081E+05 
  38835.5751     0.33970E+05 
  38875.9028     0.36466E+05 
  38916.2305     0.38514E+05 
  38956.5582     0.40082E+05 
  38996.8859     0.41147E+05 
  39037.2136     0.41692E+05 
  39077.5413     0.41709E+05 
  39117.8690     0.41204E+05 
  39158.1967     0.40215E+05 
  39198.5244     0.38808E+05 
  39238.8521     0.37077E+05 
  39279.1798     0.35124E+05 
  39319.5075     0.33039E+05 
  39359.8352     0.30887E+05 
  39400.1629     0.28698E+05 
  39440.4906     0.26478E+05 
  39480.8183     0.24225E+05 
  39521.1460     0.21943E+05 
  39561.4737     0.19659E+05 
  39601.8014     0.17419E+05 
  39642.1291     0.15287E+05 
  39682.4568     0.13330E+05 
  39722.7845     0.11604E+05 
  39763.1122     0.10153E+05 
  39803.4399     0.89966E+04 
  39843.7676     0.81330E+04 
  39884.0953     0.75445E+04 
  39924.4230     0.72014E+04 
  39964.7507     0.70688E+04 
  40005.0784     0.71128E+04 
  40045.4061     0.73041E+04 
  40085.7338     0.76206E+04 
  40126.0615     0.80486E+04 
  40166.3892     0.85822E+04 
  40206.7169     0.92219E+04 
  40247.0446     0.99719E+04 
  40287.3723     0.10837E+05 
  40327.7000     0.11817E+05 
  40368.0277     0.12907E+05 
  40408.3554     0.14086E+05 
  40448.6831     0.15327E+05 
  40489.0108     0.16588E+05 
  40529.3385     0.17824E+05 
  40569.6662     0.18992E+05 
  40609.9939     0.20056E+05 
  40650.3216     0.20989E+05 
  40690.6493     0.21770E+05 
  40730.9770     0.22386E+05 
  40771.3047     0.22821E+05 
  40811.6324     0.23061E+05 
  40851.9601     0.23091E+05 
  40892.2878     0.22905E+05 
  40932.6155     0.22508E+05 
  40972.9432     0.21924E+05 
  41013.2709     0.21187E+05 
  41053.5986     0.20343E+05 
  41093.9263     0.19437E+05 
  41134.2540     0.18506E+05 
  41174.5817     0.17575E+05 
  41214.9094     0.16657E+05 
  41255.2371     0.15756E+05 
  41295.5648     0.14873E+05 
  41335.8925     0.14011E+05 
  41376.2202     0.13174E+05 
  41416.5479     0.12372E+05 
  41456.8756     0.11616E+05 
  41497.2033     0.10919E+05 
  41537.5310     0.10292E+05 
  41577.8587     0.97438E+04 
  41618.1864     0.92785E+04 
  41658.5141     0.88979E+04 
  41698.8418     0.86005E+04 
  41739.1695     0.83823E+04 
  41779.4972     0.82376E+04 
  41819.8249     0.81596E+04 
  41860.1526     0.81410E+04 
  41900.4803     0.81743E+04 
  41940.8080     0.82523E+04 
  41981.1357     0.83680E+04 
  42021.4634     0.85157E+04 
  42061.7911     0.86897E+04 
  42102.1188     0.88848E+04 
  42142.4465     0.90951E+04 
  42182.7742     0.93131E+04 
  42223.1019     0.95304E+04 
  42263.4296     0.97370E+04 
  42303.7573     0.99235E+04 
  42344.0850     0.10082E+05 
  42384.4127     0.10208E+05 
  42424.7404     0.10299E+05 
  42465.0681     0.10354E+05 
  42505.3958     0.10375E+05 
  42545.7235     0.10360E+05 
  42586.0512     0.10309E+05 
  42626.3789     0.10220E+05 
  42666.7066     0.10091E+05 
  42707.0343     0.99215E+04 
  42747.3620     0.97153E+04 
  42787.6897     0.94779E+04 
  42828.0174     0.92171E+04 
  42868.3451     0.89414E+04 
  42908.6728     0.86584E+04 
  42949.0005     0.83744E+04 
  42989.3282     0.80933E+04 
  43029.6559     0.78181E+04 
  43069.9836     0.75501E+04 
  43110.3113     0.72909E+04 
  43150.6390     0.70417E+04 
  43190.9667     0.68041E+04 
  43231.2944     0.65797E+04 
  43271.6221     0.63702E+04 
  43311.9498     0.61770E+04 
  43352.2775     0.60011E+04 
  43392.6052     0.58432E+04 
  43432.9329     0.57031E+04 
  43473.2606     0.55805E+04 
  43513.5883     0.54747E+04 
  43553.9160     0.53844E+04 
  43594.2437     0.53083E+04 
  43634.5714     0.52445E+04 
  43674.8991     0.51916E+04 
  43715.2268     0.51477E+04 
  43755.5545     0.51114E+04 
  43795.8822     0.50810E+04 
  43836.2099     0.50555E+04 
  43876.5376     0.50339E+04 
  43916.8653     0.50147E+04 
  43957.1930     0.49969E+04 
  43997.5207     0.49786E+04 
  44037.8484     0.49585E+04 
  44078.1761     0.49350E+04 
  44118.5038     0.49070E+04 
  44158.8315     0.48741E+04 
  44199.1592     0.48364E+04 
  44239.4869     0.47940E+04 
  44279.8146     0.47477E+04 
  44320.1423     0.46979E+04 
  44360.4700     0.46448E+04 
  44400.7977     0.45885E+04 
  44441.1254     0.45292E+04 
  44481.4531     0.44671E+04 
  44521.7808     0.44027E+04 
  44562.1085     0.43370E+04 
  44602.4362     0.42709E+04 
  44642.7639     0.42058E+04 
  44683.0916     0.41425E+04 
  44723.4193     0.40822E+04 
  44763.7470     0.40256E+04 
  44804.0747     0.39733E+04 
  44844.4024     0.39258E+04 
  44884.7301     0.38835E+04 
  44925.0578     0.38470E+04 
  44965.3855     0.38167E+04 
  45005.7132     0.37929E+04 
  45046.0409     0.37763E+04 
  45086.3686     0.37673E+04 
  45126.6963     0.37663E+04 
  45167.0240     0.37738E+04 
  45207.3517     0.37905E+04 
  45247.6794     0.38167E+04 
  45288.0071     0.38531E+04 
  45328.3348     0.39003E+04 
  45368.6625     0.39591E+04 
  45408.9902     0.40303E+04 
  45449.3179     0.41151E+04 
  45489.6456     0.42146E+04 
  45529.9733     0.43304E+04 
  45570.3010     0.44645E+04 
  45610.6287     0.46190E+04 
  45650.9564     0.47966E+04 
  45691.2841     0.50002E+04 
  45731.6118     0.52334E+04 
  45771.9395     0.54999E+04 
  45812.2672     0.58038E+04 
  45852.5949     0.61493E+04 
  45892.9226     0.65404E+04 
  45933.2503     0.69800E+04 
  45973.5780     0.74686E+04 
  46013.9057     0.80027E+04 
  46054.2334     0.85715E+04 
  46094.5611     0.91540E+04 
  46134.8888     0.97160E+04 
  46175.2165     0.10209E+05 
  46215.5442     0.10575E+05 
  46255.8719     0.10754E+05 
  46296.1996     0.10702E+05 
  46336.5273     0.10404E+05 
  46376.8550     0.98741E+04 
  46417.1827     0.91561E+04 
  46457.5104     0.83055E+04 
  46497.8381     0.73785E+04 
  46538.1658     0.64243E+04 
  46578.4935     0.54835E+04 
  46618.8212     0.45920E+04 
  46659.1489     0.37856E+04 
  46699.4766     0.31040E+04 
  46739.8043     0.25911E+04 
  46780.1320     0.22871E+04 
  46820.4597     0.22171E+04 
  46860.7874     0.23800E+04 
  46901.1151     0.27447E+04 
  46941.4428     0.32539E+04 
  46981.7705     0.38340E+04 
  47022.0982     0.44069E+04 
  47062.4259     0.49051E+04 
  47102.7536     0.52852E+04 
  47143.0813     0.55371E+04 
  47183.4090     0.56833E+04 
  47223.7367     0.57678E+04 
  47264.0644     0.58399E+04 
  47304.3921     0.59424E+04 
  47344.7198     0.61078E+04 
  47385.0475     0.63617E+04 
  47425.3752     0.67298E+04 
  47465.7029     0.72452E+04 
  47506.0306     0.79517E+04 
  47546.3583     0.89017E+04 
  47586.6860     0.10146E+05 
  47627.0137     0.11717E+05 
  47667.3414     0.13605E+05 
  47707.6691     0.15743E+05 
  47747.9968     0.18000E+05 
  47788.3245     0.20194E+05 
  47828.6522     0.22122E+05 
  47868.9799     0.23600E+05 
  47909.3076     0.24499E+05 
  47949.6353     0.24772E+05 
  47989.9630     0.24440E+05 
  48030.2907     0.23576E+05 
  48070.6184     0.22270E+05 
  48110.9461     0.20609E+05 
  48151.2738     0.18669E+05 
  48191.6015     0.16518E+05 
  48231.9292     0.14236E+05 
  48272.2569     0.11921E+05 
  48312.5846     0.96987E+04 
  48352.9123     0.77091E+04 
  48393.2400     0.60830E+04 
  48433.5677     0.49170E+04 
  48473.8954     0.42543E+04 
  48514.2231     0.40771E+04 
  48554.5508     0.43078E+04 
  48594.8785     0.48214E+04 
  48635.2062     0.54688E+04 
  48675.5339     0.61094E+04 
  48715.8616     0.66389E+04 
  48756.1893     0.70042E+04 
  48796.5170     0.71981E+04 
  48836.8447     0.72422E+04 
  48877.1724     0.71691E+04 
  48917.5001     0.70112E+04 
  48957.8278     0.67992E+04 
  48998.1555     0.65667E+04 
  49038.4832     0.63589E+04 
  49078.8109     0.62388E+04 
  49119.1386     0.62898E+04 
  49159.4663     0.66074E+04 
  49199.7940     0.72815E+04 
  49240.1217     0.83716E+04 
  49280.4494     0.98851E+04 
  49320.7771     0.11763E+05 
  49361.1048     0.13883E+05 
  49401.4325     0.16076E+05 
  49441.7602     0.18162E+05 
  49482.0879     0.19981E+05 
  49522.4156     0.21421E+05 
  49562.7433     0.22423E+05 
  49603.0710     0.22970E+05 
  49643.3987     0.23069E+05 
  49683.7264     0.22736E+05 
  49724.0541     0.21990E+05 
  49764.3818     0.20858E+05 
  49804.7095     0.19388E+05 
  49845.0372     0.17653E+05 
  49885.3649     0.15756E+05 
  49925.6926     0.13826E+05 
  49966.0203     0.11994E+05 
  50006.3480     0.10387E+05 
  50046.6757     0.91016E+04 
  50087.0034     0.81929E+04 
  50127.3311     0.76655E+04 
  50167.6588     0.74728E+04 
  50207.9865     0.75294E+04 
  50248.3142     0.77346E+04 
  50288.6419     0.79955E+04 
  50328.9696     0.82420E+04 
  50369.2973     0.84299E+04 
  50409.6250     0.85351E+04 
  50449.9527     0.85455E+04 
  50490.2804     0.84549E+04 
  50530.6081     0.82621E+04 
  50570.9358     0.79725E+04 
  50611.2635     0.76018E+04 
  50651.5912     0.71809E+04 
  50691.9189     0.67582E+04 
  50732.2466     0.63972E+04 
  50772.5743     0.61680E+04 
  50812.9020     0.61351E+04 
  50853.2297     0.63429E+04 
  50893.5574     0.68051E+04 
  50933.8851     0.74995E+04 
  50974.2128     0.83719E+04 
  51014.5405     0.93478E+04 
  51054.8682     0.10349E+05 
  51095.1959     0.11306E+05 
  51135.5236     0.12165E+05 
  51175.8513     0.12884E+05 
  51216.1790     0.13434E+05 
  51256.5067     0.13790E+05 
  51296.8344     0.13932E+05 
  51337.1621     0.13853E+05 
  51377.4898     0.13555E+05 
  51417.8175     0.13057E+05 
  51458.1452     0.12395E+05 
  51498.4729     0.11619E+05 
  51538.8006     0.10787E+05 
  51579.1283     0.99648E+04 
  51619.4560     0.92107E+04 
  51659.7837     0.85714E+04 
  51700.1114     0.80733E+04 
  51740.4391     0.77194E+04 
  51780.7668     0.74936E+04 
  51821.0945     0.73676E+04 
  51861.4222     0.73106E+04 
  51901.7499     0.72942E+04 
  51942.0776     0.72949E+04 
  51982.4053     0.72933E+04 
  52022.7330     0.72731E+04 
  52063.0607     0.72207E+04 
  52103.3884     0.71252E+04 
  52143.7161     0.69795E+04 
  52184.0438     0.67819E+04 
  52224.3715     0.65378E+04 
  52264.6992     0.62608E+04 
  52305.0269     0.59721E+04 
  52345.3546     0.56987E+04 
  52385.6823     0.54691E+04 
  52426.0100     0.53084E+04 
  52466.3377     0.52332E+04 
  52506.6654     0.52487E+04 
  52546.9931     0.53486E+04 
  52587.3208     0.55181E+04 
  52627.6485     0.57374E+04 
  52667.9762     0.59863E+04 
  52708.3039     0.62454E+04 
  52748.6316     0.64966E+04 
  52788.9593     0.67229E+04 
  52829.2870     0.69086E+04 
  52869.6147     0.70402E+04 
  52909.9424     0.71075E+04 
  52950.2701     0.71048E+04 
  52990.5978     0.70314E+04 
  53030.9255     0.68919E+04 
  53071.2532     0.66967E+04 
  53111.5809     0.64606E+04 
  53151.9086     0.62019E+04 
  53192.2363     0.59398E+04 
  53232.5640     0.56911E+04 
  53272.8917     0.54681E+04 
  53313.2194     0.52772E+04 
  53353.5471     0.51196E+04 
  53393.8748     0.49927E+04 
  53434.2025     0.48919E+04 
  53474.5302     0.48120E+04 
  53514.8579     0.47470E+04 
  53555.1856     0.46910E+04 
  53595.5133     0.46378E+04 
  53635.8410     0.45817E+04 
  53676.1687     0.45175E+04 
  53716.4964     0.44414E+04 
  53756.8241     0.43506E+04 
  53797.1518     0.42447E+04 
  53837.4795     0.41256E+04 
  53877.8072     0.39976E+04 
  53918.1349     0.38670E+04 
  53958.4626     0.37413E+04 
  53998.7903     0.36278E+04 
  54039.1180     0.35321E+04 
  54079.4457     0.34578E+04 
  54119.7734     0.34056E+04 
  54160.1011     0.33743E+04 
  54200.4288     0.33613E+04 
  54240.7565     0.33633E+04 
  54281.0842     0.33762E+04 
  54321.4119     0.33956E+04 
  54361.7396     0.34168E+04 
  54402.0673     0.34351E+04 
  54442.3950     0.34463E+04 
  54482.7227     0.34467E+04 
  54523.0504     0.34337E+04 
  54563.3781     0.34055E+04 
  54603.7058     0.33619E+04 
  54644.0335     0.33040E+04 
  54684.3612     0.32341E+04 
  54724.6889     0.31557E+04 
  54765.0166     0.30729E+04 
  54805.3443     0.29893E+04 
  54845.6720     0.29080E+04 
  54885.9997     0.28312E+04 
  54926.3274     0.27600E+04 
  54966.6551     0.26949E+04 
  55006.9828     0.26360E+04 
  55047.3105     0.25827E+04 
  55087.6382     0.25342E+04 
  55127.9659     0.24893E+04 
  55168.2936     0.24469E+04 
  55208.6213     0.24054E+04 
  55248.9490     0.23636E+04 
  55289.2767     0.23205E+04 
  55329.6044     0.22751E+04 
  55369.9321     0.22272E+04 
  55410.2598     0.21766E+04 
  55450.5875     0.21240E+04 
  55490.9152     0.20705E+04 
  55531.2429     0.20175E+04 
  55571.5706     0.19663E+04 
  55611.8983     0.19182E+04 
  55652.2260     0.18740E+04 
  55692.5537     0.18340E+04 
  55732.8814     0.17986E+04 
  55773.2091     0.17675E+04 
  55813.5368     0.17404E+04 
  55853.8645     0.17168E+04 
  55894.1922     0.16957E+04 
  55934.5199     0.16765E+04 
  55974.8476     0.16581E+04 
  56015.1753     0.16396E+04 
  56055.5030     0.16203E+04 
  56095.8307     0.15995E+04 
  56136.1584     0.15767E+04 
  56176.4861     0.15517E+04 
  56216.8138     0.15243E+04 
  56257.1415     0.14950E+04 
  56297.4692     0.14642E+04 
  56337.7969     0.14326E+04 
  56378.1246     0.14006E+04 
  56418.4523     0.13689E+04 
  56458.7800     0.13378E+04 
  56499.1077     0.13077E+04 
  56539.4354     0.12787E+04 
  56579.7631     0.12510E+04 
  56620.0908     0.12246E+04 
  56660.4185     0.11994E+04 
  56700.7462     0.11753E+04 
  56741.0739     0.11519E+04 
  56781.4016     0.11292E+04 
  56821.7293     0.11068E+04 
  56862.0570     0.10847E+04 
  56902.3847     0.10625E+04 
  56942.7124     0.10402E+04 
  56983.0401     0.10178E+04 
  57023.3678     0.99535E+03 
  57063.6955     0.97296E+03 
  57104.0232     0.95084E+03 
  57144.3509     0.92920E+03 
  57184.6786     0.90820E+03 
  57225.0063     0.88798E+03 
  57265.3340     0.86865E+03 
  57305.6617     0.85025E+03 
  57345.9894     0.83279E+03 
  57386.3171     0.81627E+03 
  57426.6448     0.80059E+03 
  57466.9725     0.78565E+03 
  57507.3002     0.77131E+03 
  57547.6279     0.75743E+03 
  57587.9556     0.74387E+03 
  57628.2833     0.73049E+03 
  57668.6110     0.71717E+03 
  57708.9387     0.70382E+03 
  57749.2664     0.69036E+03 
  57789.5941     0.67680E+03 
  57829.9218     0.66315E+03 
  57870.2495     0.64948E+03 
  57910.5772     0.63583E+03 
  57950.9049     0.62229E+03 
  57991.2326     0.60893E+03 
  58031.5603     0.59581E+03 
  58071.8880     0.58296E+03 
  58112.2157     0.57045E+03 
  58152.5434     0.55827E+03 
  58192.8711     0.54644E+03 
  58233.1988     0.53495E+03 
  58273.5265     0.52378E+03 
  58313.8542     0.51290E+03 
  58354.1819     0.50227E+03 
  58394.5096     0.49187E+03 
  58434.8373     0.48165E+03 
  58475.1650     0.47160E+03 
  58515.4927     0.46168E+03 
  58555.8204     0.45189E+03 
  58596.1481     0.44225E+03 
  58636.4758     0.43276E+03 
  58676.8035     0.42345E+03 
  58717.1312     0.41432E+03 
  58757.4589     0.40541E+03 
  58797.7866     0.39673E+03 
  58838.1143     0.38830E+03 
  58878.4420     0.38011E+03 
  58918.7697     0.37218E+03 
  58959.0974     0.36449E+03 
  58999.4251     0.35704E+03 
  59039.7528     0.34980E+03 
  59080.0805     0.34277E+03 
  59120.4082     0.33592E+03 
  59160.7359     0.32921E+03 
  59201.0636     0.32265E+03 
  59241.3913     0.31620E+03 
  59281.7190     0.30986E+03 
  59322.0467     0.30360E+03 
  59362.3744     0.29743E+03 
  59402.7021     0.29135E+03 
  59443.0298     0.28537E+03 
  59483.3575     0.27947E+03 
  59523.6852     0.27368E+03 
  59564.0129     0.26799E+03 
  59604.3406     0.26242E+03 
  59644.6683     0.25697E+03 
  59684.9960     0.25164E+03 
  59725.3237     0.24644E+03 
  59765.6514     0.24135E+03 
  59805.9791     0.23639E+03 
  59846.3068     0.23154E+03 
  59886.6345     0.22680E+03 
  59926.9622     0.22217E+03 
  59967.2899     0.21764E+03 
  60007.6176     0.21320E+03 
  60047.9453     0.20884E+03 
  60088.2730     0.20458E+03 
  60128.6007     0.20040E+03 
  60168.9284     0.19630E+03 
  60209.2561     0.19228E+03 
  60249.5838     0.18834E+03 
  60289.9115     0.18450E+03 
  60330.2392     0.18073E+03 
  60370.5669     0.17705E+03 
  60410.8946     0.17346E+03 
  60451.2223     0.16995E+03 
  60491.5500     0.16653E+03 
  60531.8777     0.16319E+03 
  60572.2054     0.15993E+03 
  60612.5331     0.15674E+03 
  60652.8608     0.15363E+03 
  60693.1885     0.15059E+03 
  60733.5162     0.14762E+03 
  60773.8439     0.14471E+03 
  60814.1716     0.14186E+03 
  60854.4993     0.13906E+03 
  60894.8270     0.13632E+03 
  60935.1547     0.13363E+03 
  60975.4824     0.13100E+03 
  61015.8101     0.12841E+03 
  61056.1378     0.12588E+03 
  61096.4655     0.12340E+03 
  61136.7932     0.12097E+03 
  61177.1209     0.11859E+03 
  61217.4486     0.11626E+03 
  61257.7763     0.11398E+03 
  61298.1040     0.11175E+03 
  61338.4317     0.10957E+03 
  61378.7594     0.10743E+03 
  61419.0871     0.10535E+03 
  61459.4148     0.10330E+03 
  61499.7425     0.10130E+03 
  61540.0702     0.99346E+02 
  61580.3979     0.97429E+02 
  61620.7256     0.95553E+02 
  61661.0533     0.93715E+02 
  61701.3810     0.91915E+02 
  61741.7087     0.90152E+02 
  61782.0364     0.88426E+02 
  61822.3641     0.86737E+02 
  61862.6918     0.85083E+02 
  61903.0195     0.83464E+02 
  61943.3472     0.81880E+02 
  61983.6749     0.80331E+02 
  62024.0026     0.78815E+02 
  62064.3303     0.77332E+02 
  62104.6580     0.75881E+02 
  62144.9857     0.74462E+02 
  62185.3134     0.73073E+02 
  62225.6411     0.71715E+02 
  62265.9688     0.70385E+02 
  62306.2965     0.69083E+02 
  62346.6242     0.67809E+02 
  62386.9519     0.66562E+02 
  62427.2796     0.65340E+02 
  62467.6073     0.64144E+02 
  62507.9350     0.62972E+02 
  62548.2627     0.61825E+02 
  62588.5904     0.60702E+02 
  62628.9181     0.59602E+02 
  62669.2458     0.58526E+02 
  62709.5735     0.57472E+02 
  62749.9012     0.56440E+02 
  62790.2289     0.55431E+02 
  62830.5566     0.54444E+02 
  62870.8843     0.53478E+02 
  62911.2120     0.52532E+02 
  62951.5397     0.51608E+02 
  62991.8674     0.50703E+02 
  63032.1951     0.49818E+02 
  63072.5228     0.48952E+02 
  63112.8505     0.48106E+02 
  63153.1782     0.47278E+02 
  63193.5059     0.46468E+02 
  63233.8336     0.45675E+02 
  63274.1613     0.44901E+02 
  63314.4890     0.44144E+02 
  63354.8167     0.43403E+02 
  63395.1444     0.42679E+02 
  63435.4721     0.41972E+02 
  63475.7998     0.41281E+02 
  63516.1275     0.40606E+02 
  63556.4552     0.39947E+02 
  63596.7829     0.39302E+02 
  63637.1106     0.38674E+02 
  63677.4383     0.38060E+02 
  63717.7660     0.37461E+02 
  63758.0937     0.36876E+02 
  63798.4214     0.36305E+02 
  63838.7491     0.35749E+02 
  63879.0768     0.35206E+02 
  63919.4045     0.34676E+02 
  63959.7322     0.34160E+02 
  64000.0599     0.33657E+02 
  64040.3876     0.33167E+02 
  64080.7153     0.32689E+02 
  64121.0430     0.32225E+02 
  64161.3707     0.31772E+02 
  64201.6984     0.31332E+02 
  64242.0261     0.30904E+02 
  64282.3538     0.30488E+02 
  64322.6815     0.30084E+02 
  64363.0092     0.29691E+02 
  64403.3369     0.29310E+02 
  64443.6646     0.28941E+02 
  64483.9923     0.28583E+02 
  64524.3200     0.28236E+02 
  64564.6477     0.27900E+02 
  64604.9754     0.27575E+02 
  64645.3031     0.27261E+02 
  64685.6308     0.26958E+02 
  64725.9585     0.26665E+02 
  64766.2862     0.26383E+02 
  64806.6139     0.26111E+02 
  64846.9416     0.25850E+02 
  64887.2693     0.25600E+02 
  64927.5970     0.25359E+02 
  64967.9247     0.25129E+02 
  65008.2524     0.24909E+02 
  65048.5801     0.24699E+02 
  65088.9078     0.24498E+02 
  65129.2355     0.24308E+02 
  65169.5632     0.24128E+02 
  65209.8909     0.23958E+02 
  65250.2186     0.23797E+02 
  65290.5463     0.23647E+02 
  65330.8740     0.23506E+02 
  65371.2017     0.23374E+02 
  65411.5294     0.23253E+02 
  65451.8571     0.23141E+02 
  65492.1848     0.23039E+02 
  65532.5125     0.22946E+02 
  65572.8402     0.22863E+02 
  65613.1679     0.22790E+02 
  65653.4956     0.22726E+02 
  65693.8233     0.22672E+02 
  65734.1510     0.22627E+02 
  65774.4787     0.22592E+02 
  65814.8064     0.22566E+02 
  65855.1341     0.22551E+02 
  65895.4618     0.22545E+02 
  65935.7895     0.22548E+02 
  65976.1172     0.22561E+02 
  66016.4449     0.22584E+02 
  66056.7726     0.22617E+02 
  66097.1003     0.22660E+02 
  66137.4280     0.22712E+02 
  66177.7557     0.22774E+02 
  66218.0834     0.22846E+02 
  66258.4111     0.22928E+02 
  66298.7388     0.23020E+02 
  66339.0665     0.23123E+02 
  66379.3942     0.23235E+02 
  66419.7219     0.23357E+02 
  66460.0496     0.23490E+02 
  66500.3773     0.23633E+02 
  66540.7050     0.23787E+02 
  66581.0327     0.23951E+02 
  66621.3604     0.24125E+02 
  66661.6881     0.24310E+02 
  66702.0158     0.24506E+02 
  66742.3435     0.24713E+02 
  66782.6712     0.24930E+02 
  66822.9989     0.25159E+02 
  66863.3266     0.25399E+02 
  66903.6543     0.25650E+02 
  66943.9820     0.25913E+02 
  66984.3097     0.26186E+02 
  67024.6374     0.26472E+02 
  67064.9651     0.26769E+02 
  67105.2928     0.27078E+02 
  67145.6205     0.27400E+02 
  67185.9482     0.27733E+02 
  67226.2759     0.28078E+02 
  67266.6036     0.28437E+02 
  67306.9313     0.28807E+02 
  67347.2590     0.29191E+02 
  67387.5867     0.29587E+02 
  67427.9144     0.29996E+02 
  67468.2421     0.30419E+02 
  67508.5698     0.30855E+02 
  67548.8975     0.31305E+02 
  67589.2252     0.31768E+02 
  67629.5529     0.32246E+02 
  67669.8806     0.32738E+02 
  67710.2083     0.33244E+02 
  67750.5360     0.33765E+02 
  67790.8637     0.34300E+02 
  67831.1914     0.34851E+02 
  67871.5191     0.35417E+02 
  67911.8468     0.35999E+02 
  67952.1745     0.36596E+02 
  67992.5022     0.37210E+02 
  68032.8299     0.37840E+02 
  68073.1576     0.38486E+02 
  68113.4853     0.39149E+02 
  68153.8130     0.39830E+02 
  68194.1407     0.40527E+02 
  68234.4684     0.41243E+02 
  68274.7961     0.41976E+02 
  68315.1238     0.42728E+02 
  68355.4515     0.43498E+02 
  68395.7792     0.44287E+02 
  68436.1069     0.45096E+02 
  68476.4346     0.45924E+02 
  68516.7623     0.46772E+02 
  68557.0900     0.47641E+02 
  68597.4177     0.48530E+02 
  68637.7454     0.49440E+02 
  68678.0731     0.50372E+02 
  68718.4008     0.51326E+02 
  68758.7285     0.52302E+02 
  68799.0562     0.53300E+02 
  68839.3839     0.54322E+02 
  68879.7116     0.55367E+02 
  68920.0393     0.56436E+02 
  68960.3670     0.57530E+02 
  69000.6947     0.58649E+02 
  69041.0224     0.59793E+02 
  69081.3501     0.60962E+02 
  69121.6778     0.62159E+02 
  69162.0055     0.63382E+02 
  69202.3332     0.64633E+02 
  69242.6609     0.65912E+02 
  69282.9886     0.67219E+02 
  69323.3163     0.68556E+02 
  69363.6440     0.69923E+02 
  69403.9717     0.71319E+02 
  69444.2994     0.72747E+02 
  69484.6271     0.74207E+02 
  69524.9548     0.75699E+02 
  69565.2825     0.77223E+02 
  69605.6102     0.78782E+02 
  69645.9379     0.80375E+02 
  69686.2656     0.82003E+02 
  69726.5933     0.83667E+02 
  69766.9210     0.85367E+02 
  69807.2487     0.87105E+02 
  69847.5764     0.88881E+02 
  69887.9041     0.90696E+02 
  69928.2318     0.92551E+02 
  69968.5595     0.94447E+02 
  70008.8872     0.96385E+02 
  70049.2149     0.98364E+02 
  70089.5426     0.10039E+03 
  70129.8703     0.10246E+03 
  70170.1980     0.10457E+03 
  70210.5257     0.10673E+03 
  70250.8534     0.10894E+03 
  70291.1811     0.11119E+03 
  70331.5088     0.11350E+03 
  70371.8365     0.11586E+03 
  70412.1642     0.11826E+03 
  70452.4919     0.12073E+03 
  70492.8196     0.12324E+03 
  70533.1473     0.12582E+03 
  70573.4750     0.12844E+03 
  70613.8027     0.13113E+03 
  70654.1304     0.13388E+03 
  70694.4581     0.13669E+03 
  70734.7858     0.13956E+03 
  70775.1135     0.14249E+03 
  70815.4412     0.14549E+03 
  70855.7689     0.14856E+03 
  70896.0966     0.15170E+03 
  70936.4243     0.15491E+03 
  70976.7520     0.15818E+03 
  71017.0797     0.16154E+03 
  71057.4074     0.16497E+03 
  71097.7351     0.16847E+03 
  71138.0628     0.17206E+03 
  71178.3905     0.17572E+03 
  71218.7182     0.17948E+03 
  71259.0459     0.18331E+03 
  71299.3736     0.18723E+03 
  71339.7013     0.19125E+03 
  71380.0290     0.19535E+03 
  71420.3567     0.19955E+03 
  71460.6844     0.20385E+03 
  71501.0121     0.20825E+03 
  71541.3398     0.21275E+03 
  71581.6675     0.21735E+03 
  71621.9952     0.22206E+03 
  71662.3229     0.22688E+03 
  71702.6506     0.23181E+03 
  71742.9783     0.23686E+03 
  71783.3060     0.24203E+03 
  71823.6337     0.24732E+03 
  71863.9614     0.25274E+03 
  71904.2891     0.25828E+03 
  71944.6168     0.26396E+03 
  71984.9445     0.26977E+03 
  72025.2722     0.27572E+03 
  72065.5999     0.28182E+03 
  72105.9276     0.28806E+03 
  72146.2553     0.29445E+03 
  72186.5830     0.30100E+03 
  72226.9107     0.30771E+03 
  72267.2384     0.31458E+03 
  72307.5661     0.32162E+03 
  72347.8938     0.32884E+03 
  72388.2215     0.33623E+03 
  72428.5492     0.34380E+03 
  72468.8769     0.35157E+03 
  72509.2046     0.35953E+03 
  72549.5323     0.36768E+03 
  72589.8600     0.37604E+03 
