  32262.1600     0.38827E-03 
  32294.4222     0.37401E-03 
  32326.6843     0.35999E-03 
  32358.9465     0.34622E-03 
  32391.2086     0.33270E-03 
  32423.4708     0.31943E-03 
  32455.7330     0.30641E-03 
  32487.9951     0.29365E-03 
  32520.2573     0.28114E-03 
  32552.5194     0.26889E-03 
  32584.7816     0.25690E-03 
  32617.0438     0.24518E-03 
  32649.3059     0.23372E-03 
  32681.5681     0.22253E-03 
  32713.8302     0.21160E-03 
  32746.0924     0.20095E-03 
  32778.3546     0.19057E-03 
  32810.6167     0.18046E-03 
  32842.8789     0.17064E-03 
  32875.1410     0.16109E-03 
  32907.4032     0.15182E-03 
  32939.6654     0.14285E-03 
  32971.9275     0.13415E-03 
  33004.1897     0.12575E-03 
  33036.4518     0.11765E-03 
  33068.7140     0.10983E-03 
  33100.9762     0.10232E-03 
  33133.2383     0.95109E-04 
  33165.5005     0.88202E-04 
  33197.7626     0.81602E-04 
  33230.0248     0.75312E-04 
  33262.2870     0.69335E-04 
  33294.5491     0.63675E-04 
  33326.8113     0.58335E-04 
  33359.0734     0.53317E-04 
  33391.3356     0.48626E-04 
  33423.5978     0.44264E-04 
  33455.8599     0.40236E-04 
  33488.1221     0.36544E-04 
  33520.3842     0.33192E-04 
  33552.6464     0.30184E-04 
  33584.9086     0.27523E-04 
  33617.1707     0.25214E-04 
  33649.4329     0.23260E-04 
  33681.6950     0.21665E-04 
  33713.9572     0.20432E-04 
  33746.2194     0.19567E-04 
  33778.4815     0.19073E-04 
  33810.7437     0.18954E-04 
  33843.0058     0.19214E-04 
  33875.2680     0.19859E-04 
  33907.5302     0.20892E-04 
  33939.7923     0.22318E-04 
  33972.0545     0.24141E-04 
  34004.3166     0.26366E-04 
  34036.5788     0.28998E-04 
  34068.8410     0.32042E-04 
  34101.1031     0.35502E-04 
  34133.3653     0.39384E-04 
  34165.6274     0.43692E-04 
  34197.8896     0.48432E-04 
  34230.1518     0.53609E-04 
  34262.4139     0.59228E-04 
  34294.6761     0.65295E-04 
  34326.9382     0.71815E-04 
  34359.2004     0.78794E-04 
  34391.4626     0.86237E-04 
  34423.7247     0.94151E-04 
  34455.9869     0.10254E-03 
  34488.2490     0.11141E-03 
  34520.5112     0.12077E-03 
  34552.7734     0.13063E-03 
  34585.0355     0.14098E-03 
  34617.2977     0.15185E-03 
  34649.5598     0.16322E-03 
  34681.8220     0.17512E-03 
  34714.0842     0.18754E-03 
  34746.3463     0.20050E-03 
  34778.6085     0.21400E-03 
  34810.8706     0.22804E-03 
  34843.1328     0.24264E-03 
  34875.3950     0.25780E-03 
  34907.6571     0.27354E-03 
  34939.9193     0.28984E-03 
  34972.1814     0.30674E-03 
  35004.4436     0.32422E-03 
  35036.7058     0.34231E-03 
  35068.9679     0.36101E-03 
  35101.2301     0.38032E-03 
  35133.4922     0.40025E-03 
  35165.7544     0.42082E-03 
  35198.0166     0.44204E-03 
  35230.2787     0.46390E-03 
  35262.5409     0.48642E-03 
  35294.8030     0.50961E-03 
  35327.0652     0.53348E-03 
  35359.3274     0.55803E-03 
  35391.5895     0.58328E-03 
  35423.8517     0.60924E-03 
  35456.1138     0.63591E-03 
  35488.3760     0.66330E-03 
  35520.6382     0.69143E-03 
  35552.9003     0.72031E-03 
  35585.1625     0.74994E-03 
  35617.4246     0.78034E-03 
  35649.6868     0.81152E-03 
  35681.9490     0.84348E-03 
  35714.2111     0.87625E-03 
  35746.4733     0.90982E-03 
  35778.7354     0.94422E-03 
  35810.9976     0.97945E-03 
  35843.2598     0.10155E-02 
  35875.5219     0.10525E-02 
  35907.7841     0.10903E-02 
  35940.0462     0.11289E-02 
  35972.3084     0.11685E-02 
  36004.5706     0.12090E-02 
  36036.8327     0.12504E-02 
  36069.0949     0.12927E-02 
  36101.3570     0.13360E-02 
  36133.6192     0.13803E-02 
  36165.8814     0.14255E-02 
  36198.1435     0.14717E-02 
  36230.4057     0.15189E-02 
  36262.6678     0.15671E-02 
  36294.9300     0.16164E-02 
  36327.1922     0.16667E-02 
  36359.4543     0.17180E-02 
  36391.7165     0.17705E-02 
  36423.9786     0.18240E-02 
  36456.2408     0.18787E-02 
  36488.5030     0.19344E-02 
  36520.7651     0.19913E-02 
  36553.0273     0.20494E-02 
  36585.2894     0.21086E-02 
  36617.5516     0.21691E-02 
  36649.8138     0.22307E-02 
  36682.0759     0.22936E-02 
  36714.3381     0.23577E-02 
  36746.6002     0.24231E-02 
  36778.8624     0.24898E-02 
  36811.1246     0.25578E-02 
  36843.3867     0.26271E-02 
  36875.6489     0.26977E-02 
  36907.9110     0.27697E-02 
  36940.1732     0.28431E-02 
  36972.4354     0.29179E-02 
  37004.6975     0.29941E-02 
  37036.9597     0.30718E-02 
  37069.2218     0.31509E-02 
  37101.4840     0.32316E-02 
  37133.7462     0.33137E-02 
  37166.0083     0.33974E-02 
  37198.2705     0.34826E-02 
  37230.5326     0.35694E-02 
  37262.7948     0.36578E-02 
  37295.0570     0.37479E-02 
  37327.3191     0.38396E-02 
  37359.5813     0.39330E-02 
  37391.8434     0.40281E-02 
  37424.1056     0.41249E-02 
  37456.3678     0.42235E-02 
  37488.6299     0.43239E-02 
  37520.8921     0.44261E-02 
  37553.1542     0.45302E-02 
  37585.4164     0.46361E-02 
  37617.6786     0.47439E-02 
  37649.9407     0.48536E-02 
  37682.2029     0.49653E-02 
  37714.4650     0.50790E-02 
  37746.7272     0.51947E-02 
  37778.9894     0.53125E-02 
  37811.2515     0.54324E-02 
  37843.5137     0.55543E-02 
  37875.7758     0.56784E-02 
  37908.0380     0.58048E-02 
  37940.3002     0.59333E-02 
  37972.5623     0.60641E-02 
  38004.8245     0.61971E-02 
  38037.0866     0.63325E-02 
  38069.3488     0.64703E-02 
  38101.6110     0.66104E-02 
  38133.8731     0.67530E-02 
  38166.1353     0.68981E-02 
  38198.3974     0.70457E-02 
  38230.6596     0.71958E-02 
  38262.9218     0.73485E-02 
  38295.1839     0.75039E-02 
  38327.4461     0.76620E-02 
  38359.7082     0.78227E-02 
  38391.9704     0.79863E-02 
  38424.2326     0.81526E-02 
  38456.4947     0.83218E-02 
  38488.7569     0.84940E-02 
  38521.0190     0.86690E-02 
  38553.2812     0.88471E-02 
  38585.5434     0.90282E-02 
  38617.8055     0.92124E-02 
  38650.0677     0.93997E-02 
  38682.3298     0.95903E-02 
  38714.5920     0.97840E-02 
  38746.8542     0.99811E-02 
  38779.1163     0.10182E-01 
  38811.3785     0.10385E-01 
  38843.6406     0.10593E-01 
  38875.9028     0.10804E-01 
  38908.1650     0.11018E-01 
  38940.4271     0.11236E-01 
  38972.6893     0.11458E-01 
  39004.9514     0.11683E-01 
  39037.2136     0.11913E-01 
  39069.4758     0.12146E-01 
  39101.7379     0.12383E-01 
  39134.0001     0.12624E-01 
  39166.2622     0.12870E-01 
  39198.5244     0.13119E-01 
  39230.7866     0.13373E-01 
  39263.0487     0.13631E-01 
  39295.3109     0.13893E-01 
  39327.5730     0.14160E-01 
  39359.8352     0.14431E-01 
  39392.0974     0.14707E-01 
  39424.3595     0.14987E-01 
  39456.6217     0.15273E-01 
  39488.8838     0.15563E-01 
  39521.1460     0.15858E-01 
  39553.4082     0.16158E-01 
  39585.6703     0.16463E-01 
  39617.9325     0.16773E-01 
  39650.1946     0.17089E-01 
  39682.4568     0.17409E-01 
  39714.7190     0.17736E-01 
  39746.9811     0.18067E-01 
  39779.2433     0.18405E-01 
  39811.5054     0.18748E-01 
  39843.7676     0.19097E-01 
  39876.0298     0.19452E-01 
  39908.2919     0.19813E-01 
  39940.5541     0.20180E-01 
  39972.8162     0.20553E-01 
  40005.0784     0.20932E-01 
  40037.3406     0.21318E-01 
  40069.6027     0.21711E-01 
  40101.8649     0.22110E-01 
  40134.1270     0.22516E-01 
  40166.3892     0.22929E-01 
  40198.6514     0.23349E-01 
  40230.9135     0.23777E-01 
  40263.1757     0.24211E-01 
  40295.4378     0.24653E-01 
  40327.7000     0.25102E-01 
  40359.9622     0.25560E-01 
  40392.2243     0.26025E-01 
  40424.4865     0.26497E-01 
  40456.7486     0.26978E-01 
  40489.0108     0.27468E-01 
  40521.2730     0.27965E-01 
  40553.5351     0.28472E-01 
  40585.7973     0.28987E-01 
  40618.0594     0.29510E-01 
  40650.3216     0.30043E-01 
  40682.5838     0.30585E-01 
  40714.8459     0.31137E-01 
  40747.1081     0.31698E-01 
  40779.3702     0.32268E-01 
  40811.6324     0.32849E-01 
  40843.8946     0.33439E-01 
  40876.1567     0.34040E-01 
  40908.4189     0.34651E-01 
  40940.6810     0.35273E-01 
  40972.9432     0.35906E-01 
  41005.2054     0.36550E-01 
  41037.4675     0.37205E-01 
  41069.7297     0.37871E-01 
  41101.9918     0.38549E-01 
  41134.2540     0.39239E-01 
  41166.5162     0.39941E-01 
  41198.7783     0.40655E-01 
  41231.0405     0.41382E-01 
  41263.3026     0.42122E-01 
  41295.5648     0.42875E-01 
  41327.8270     0.43641E-01 
  41360.0891     0.44421E-01 
  41392.3513     0.45214E-01 
  41424.6134     0.46021E-01 
  41456.8756     0.46843E-01 
  41489.1378     0.47680E-01 
  41521.3999     0.48531E-01 
  41553.6621     0.49397E-01 
  41585.9242     0.50279E-01 
  41618.1864     0.51177E-01 
  41650.4486     0.52091E-01 
  41682.7107     0.53021E-01 
  41714.9729     0.53968E-01 
  41747.2350     0.54932E-01 
  41779.4972     0.55913E-01 
  41811.7594     0.56912E-01 
  41844.0215     0.57929E-01 
  41876.2837     0.58964E-01 
  41908.5458     0.60019E-01 
  41940.8080     0.61092E-01 
  41973.0702     0.62185E-01 
  42005.3323     0.63298E-01 
  42037.5945     0.64431E-01 
  42069.8566     0.65585E-01 
  42102.1188     0.66761E-01 
  42134.3810     0.67957E-01 
  42166.6431     0.69176E-01 
  42198.9053     0.70417E-01 
  42231.1674     0.71682E-01 
  42263.4296     0.72969E-01 
  42295.6918     0.74281E-01 
  42327.9539     0.75617E-01 
  42360.2161     0.76977E-01 
  42392.4782     0.78363E-01 
  42424.7404     0.79775E-01 
  42457.0026     0.81214E-01 
  42489.2647     0.82679E-01 
  42521.5269     0.84172E-01 
  42553.7890     0.85694E-01 
  42586.0512     0.87243E-01 
  42618.3134     0.88823E-01 
  42650.5755     0.90432E-01 
  42682.8377     0.92072E-01 
  42715.0998     0.93743E-01 
  42747.3620     0.95446E-01 
  42779.6242     0.97181E-01 
  42811.8863     0.98950E-01 
  42844.1485     0.10075E+00 
  42876.4106     0.10259E+00 
  42908.6728     0.10446E+00 
  42940.9350     0.10637E+00 
  42973.1971     0.10832E+00 
  43005.4593     0.11030E+00 
  43037.7214     0.11233E+00 
  43069.9836     0.11439E+00 
  43102.2458     0.11649E+00 
  43134.5079     0.11863E+00 
  43166.7701     0.12082E+00 
  43199.0322     0.12305E+00 
  43231.2944     0.12532E+00 
  43263.5566     0.12764E+00 
  43295.8187     0.13001E+00 
  43328.0809     0.13242E+00 
  43360.3430     0.13488E+00 
  43392.6052     0.13739E+00 
  43424.8674     0.13995E+00 
  43457.1295     0.14256E+00 
  43489.3917     0.14522E+00 
  43521.6538     0.14794E+00 
  43553.9160     0.15071E+00 
  43586.1782     0.15354E+00 
  43618.4403     0.15643E+00 
  43650.7025     0.15938E+00 
  43682.9646     0.16238E+00 
  43715.2268     0.16545E+00 
  43747.4890     0.16858E+00 
  43779.7511     0.17178E+00 
  43812.0133     0.17504E+00 
  43844.2754     0.17838E+00 
  43876.5376     0.18178E+00 
  43908.7998     0.18525E+00 
  43941.0619     0.18879E+00 
  43973.3241     0.19241E+00 
  44005.5862     0.19611E+00 
  44037.8484     0.19989E+00 
  44070.1106     0.20374E+00 
  44102.3727     0.20768E+00 
  44134.6349     0.21170E+00 
  44166.8970     0.21581E+00 
  44199.1592     0.22001E+00 
  44231.4214     0.22429E+00 
  44263.6835     0.22867E+00 
  44295.9457     0.23315E+00 
  44328.2078     0.23772E+00 
  44360.4700     0.24240E+00 
  44392.7322     0.24717E+00 
  44424.9943     0.25205E+00 
  44457.2565     0.25704E+00 
  44489.5186     0.26214E+00 
  44521.7808     0.26736E+00 
  44554.0430     0.27269E+00 
  44586.3051     0.27814E+00 
  44618.5673     0.28371E+00 
  44650.8294     0.28941E+00 
  44683.0916     0.29524E+00 
  44715.3538     0.30120E+00 
  44747.6159     0.30729E+00 
  44779.8781     0.31353E+00 
  44812.1402     0.31991E+00 
  44844.4024     0.32643E+00 
  44876.6646     0.33311E+00 
  44908.9267     0.33995E+00 
  44941.1889     0.34694E+00 
  44973.4510     0.35410E+00 
  45005.7132     0.36142E+00 
  45037.9754     0.36892E+00 
  45070.2375     0.37660E+00 
  45102.4997     0.38446E+00 
  45134.7618     0.39251E+00 
  45167.0240     0.40075E+00 
  45199.2862     0.40919E+00 
  45231.5483     0.41783E+00 
  45263.8105     0.42668E+00 
  45296.0726     0.43576E+00 
  45328.3348     0.44505E+00 
  45360.5970     0.45457E+00 
  45392.8591     0.46433E+00 
  45425.1213     0.47433E+00 
  45457.3834     0.48457E+00 
  45489.6456     0.49508E+00 
  45521.9078     0.50585E+00 
  45554.1699     0.51689E+00 
  45586.4321     0.52822E+00 
  45618.6942     0.53983E+00 
  45650.9564     0.55174E+00 
  45683.2186     0.56395E+00 
  45715.4807     0.57649E+00 
  45747.7429     0.58934E+00 
  45780.0050     0.60254E+00 
  45812.2672     0.61608E+00 
  45844.5294     0.62998E+00 
  45876.7915     0.64424E+00 
  45909.0537     0.65889E+00 
  45941.3158     0.67392E+00 
  45973.5780     0.68937E+00 
  46005.8402     0.70523E+00 
  46038.1023     0.72152E+00 
  46070.3645     0.73826E+00 
  46102.6266     0.75545E+00 
  46134.8888     0.77312E+00 
  46167.1510     0.79128E+00 
  46199.4131     0.80995E+00 
  46231.6753     0.82914E+00 
  46263.9374     0.84888E+00 
  46296.1996     0.86917E+00 
  46328.4618     0.89004E+00 
  46360.7239     0.91152E+00 
  46392.9861     0.93361E+00 
  46425.2482     0.95634E+00 
  46457.5104     0.97974E+00 
  46489.7726     0.10038E+01 
  46522.0347     0.10286E+01 
  46554.2969     0.10542E+01 
  46586.5590     0.10804E+01 
  46618.8212     0.11075E+01 
  46651.0834     0.11354E+01 
  46683.3455     0.11642E+01 
  46715.6077     0.11938E+01 
  46747.8698     0.12244E+01 
  46780.1320     0.12559E+01 
  46812.3942     0.12884E+01 
  46844.6563     0.13219E+01 
  46876.9185     0.13565E+01 
  46909.1806     0.13921E+01 
  46941.4428     0.14290E+01 
  46973.7050     0.14670E+01 
  47005.9671     0.15062E+01 
  47038.2293     0.15468E+01 
  47070.4914     0.15886E+01 
  47102.7536     0.16319E+01 
  47135.0158     0.16766E+01 
  47167.2779     0.17228E+01 
  47199.5401     0.17707E+01 
  47231.8022     0.18201E+01 
  47264.0644     0.18712E+01 
  47296.3266     0.19242E+01 
  47328.5887     0.19790E+01 
  47360.8509     0.20357E+01 
  47393.1130     0.20944E+01 
  47425.3752     0.21553E+01 
  47457.6374     0.22184E+01 
  47489.8995     0.22837E+01 
  47522.1617     0.23515E+01 
  47554.4238     0.24218E+01 
  47586.6860     0.24948E+01 
  47618.9482     0.25705E+01 
  47651.2103     0.26491E+01 
  47683.4725     0.27307E+01 
  47715.7346     0.28155E+01 
  47747.9968     0.29036E+01 
  47780.2590     0.29952E+01 
  47812.5211     0.30905E+01 
  47844.7833     0.31897E+01 
  47877.0454     0.32929E+01 
  47909.3076     0.34003E+01 
  47941.5698     0.35123E+01 
  47973.8319     0.36289E+01 
  48006.0941     0.37505E+01 
  48038.3562     0.38774E+01 
  48070.6184     0.40098E+01 
  48102.8806     0.41479E+01 
  48135.1427     0.42923E+01 
  48167.4049     0.44431E+01 
  48199.6670     0.46008E+01 
  48231.9292     0.47657E+01 
  48264.1914     0.49384E+01 
  48296.4535     0.51192E+01 
  48328.7157     0.53086E+01 
  48360.9778     0.55072E+01 
  48393.2400     0.57155E+01 
  48425.5022     0.59342E+01 
  48457.7643     0.61639E+01 
  48490.0265     0.64053E+01 
  48522.2886     0.66592E+01 
  48554.5508     0.69265E+01 
  48586.8130     0.72079E+01 
  48619.0751     0.75046E+01 
  48651.3373     0.78176E+01 
  48683.5994     0.81480E+01 
  48715.8616     0.84970E+01 
  48748.1238     0.88662E+01 
  48780.3859     0.92569E+01 
  48812.6481     0.96708E+01 
  48844.9102     0.10110E+02 
  48877.1724     0.10576E+02 
  48909.4346     0.11071E+02 
  48941.6967     0.11597E+02 
  48973.9589     0.12158E+02 
  49006.2210     0.12755E+02 
  49038.4832     0.13393E+02 
  49070.7454     0.14075E+02 
  49103.0075     0.14804E+02 
  49135.2697     0.15586E+02 
  49167.5318     0.16424E+02 
  49199.7940     0.17325E+02 
  49232.0562     0.18294E+02 
  49264.3183     0.19339E+02 
  49296.5805     0.20466E+02 
  49328.8426     0.21685E+02 
  49361.1048     0.23005E+02 
  49393.3670     0.24437E+02 
  49425.6291     0.25993E+02 
  49457.8913     0.27687E+02 
  49490.1534     0.29534E+02 
  49522.4156     0.31553E+02 
  49554.6778     0.33762E+02 
  49586.9399     0.36185E+02 
  49619.2021     0.38845E+02 
  49651.4642     0.41771E+02 
  49683.7264     0.44993E+02 
  49715.9886     0.48544E+02 
  49748.2507     0.52459E+02 
  49780.5129     0.56775E+02 
  49812.7750     0.61528E+02 
  49845.0372     0.66750E+02 
  49877.2994     0.72466E+02 
  49909.5615     0.78689E+02 
  49941.8237     0.85411E+02 
  49974.0858     0.92595E+02 
  50006.3480     0.10017E+03 
  50038.6102     0.10801E+03 
  50070.8723     0.11597E+03 
  50103.1345     0.12385E+03 
  50135.3966     0.13141E+03 
  50167.6588     0.13843E+03 
  50199.9210     0.14468E+03 
  50232.1831     0.14993E+03 
  50264.4453     0.15399E+03 
  50296.7074     0.15668E+03 
  50328.9696     0.15790E+03 
  50361.2318     0.15753E+03 
  50393.4939     0.15557E+03 
  50425.7561     0.15200E+03 
  50458.0182     0.14689E+03 
  50490.2804     0.14032E+03 
  50522.5426     0.13245E+03 
  50554.8047     0.12346E+03 
  50587.0669     0.11359E+03 
  50619.3290     0.10311E+03 
  50651.5912     0.92285E+02 
  50683.8534     0.81400E+02 
  50716.1155     0.70716E+02 
  50748.3777     0.60466E+02 
  50780.6398     0.50856E+02 
  50812.9020     0.42051E+02 
  50845.1642     0.34173E+02 
  50877.4263     0.27301E+02 
  50909.6885     0.21478E+02 
  50941.9506     0.16714E+02 
  50974.2128     0.13003E+02 
  51006.4750     0.10328E+02 
  51038.7371     0.86707E+01 
  51070.9993     0.80171E+01 
  51103.2614     0.83632E+01 
  51135.5236     0.97191E+01 
  51167.7858     0.12111E+02 
  51200.0479     0.15580E+02 
  51232.3101     0.20182E+02 
  51264.5722     0.25979E+02 
  51296.8344     0.33040E+02 
  51329.0966     0.41436E+02 
  51361.3587     0.51240E+02 
  51393.6209     0.62525E+02 
  51425.8830     0.75361E+02 
  51458.1452     0.89804E+02 
  51490.4074     0.10589E+03 
  51522.6695     0.12362E+03 
  51554.9317     0.14295E+03 
  51587.1938     0.16377E+03 
  51619.4560     0.18592E+03 
  51651.7182     0.20918E+03 
  51683.9803     0.23325E+03 
  51716.2425     0.25778E+03 
  51748.5046     0.28239E+03 
  51780.7668     0.30664E+03 
  51813.0290     0.33007E+03 
  51845.2911     0.35221E+03 
  51877.5533     0.37258E+03 
  51909.8154     0.39072E+03 
  51942.0776     0.40620E+03 
  51974.3398     0.41864E+03 
  52006.6019     0.42773E+03 
  52038.8641     0.43320E+03 
  52071.1262     0.43491E+03 
  52103.3884     0.43282E+03 
  52135.6506     0.42701E+03 
  52167.9127     0.41763E+03 
  52200.1749     0.40493E+03 
  52232.4370     0.38923E+03 
  52264.6992     0.37090E+03 
  52296.9614     0.35036E+03 
  52329.2235     0.32809E+03 
  52361.4857     0.30456E+03 
  52393.7478     0.28025E+03 
  52426.0100     0.25560E+03 
  52458.2722     0.23100E+03 
  52490.5343     0.20682E+03 
  52522.7965     0.18334E+03 
  52555.0586     0.16085E+03 
  52587.3208     0.13952E+03 
  52619.5830     0.11953E+03 
  52651.8451     0.10098E+03 
  52684.1073     0.83952E+02 
  52716.3694     0.68503E+02 
  52748.6316     0.54685E+02 
  52780.8938     0.42542E+02 
  52813.1559     0.32119E+02 
  52845.4181     0.23459E+02 
  52877.6802     0.16610E+02 
  52909.9424     0.11623E+02 
  52942.2046     0.85591E+01 
  52974.4667     0.74861E+01 
  53006.7289     0.84733E+01 
  53038.9910     0.11586E+02 
  53071.2532     0.16880E+02 
  53103.5154     0.24392E+02 
  53135.7775     0.34134E+02 
  53168.0397     0.46090E+02 
  53200.3018     0.60205E+02 
  53232.5640     0.76386E+02 
  53264.8262     0.94495E+02 
  53297.0883     0.11435E+03 
  53329.3505     0.13571E+03 
  53361.6126     0.15831E+03 
  53393.8748     0.18182E+03 
  53426.1370     0.20587E+03 
  53458.3991     0.23009E+03 
  53490.6613     0.25405E+03 
  53522.9234     0.27733E+03 
  53555.1856     0.29949E+03 
  53587.4478     0.32013E+03 
  53619.7099     0.33886E+03 
  53651.9721     0.35537E+03 
  53684.2342     0.36935E+03 
  53716.4964     0.38058E+03 
  53748.7586     0.38888E+03 
  53781.0207     0.39415E+03 
  53813.2829     0.39634E+03 
  53845.5450     0.39549E+03 
  53877.8072     0.39171E+03 
  53910.0694     0.38518E+03 
  53942.3315     0.37610E+03 
  53974.5937     0.36471E+03 
  54006.8558     0.35131E+03 
  54039.1180     0.33617E+03 
  54071.3802     0.31962E+03 
  54103.6423     0.30196E+03 
  54135.9045     0.28349E+03 
  54168.1666     0.26449E+03 
  54200.4288     0.24520E+03 
  54232.6910     0.22586E+03 
  54264.9531     0.20667E+03 
  54297.2153     0.18782E+03 
  54329.4774     0.16947E+03 
  54361.7396     0.15177E+03 
  54394.0018     0.13484E+03 
  54426.2639     0.11878E+03 
  54458.5261     0.10367E+03 
  54490.7882     0.89623E+02 
  54523.0504     0.76708E+02 
  54555.3126     0.65009E+02 
  54587.5747     0.54602E+02 
  54619.8369     0.45560E+02 
  54652.0990     0.37949E+02 
  54684.3612     0.31828E+02 
  54716.6234     0.27248E+02 
  54748.8855     0.24250E+02 
  54781.1477     0.22861E+02 
  54813.4098     0.23088E+02 
  54845.6720     0.24922E+02 
  54877.9342     0.28333E+02 
  54910.1963     0.33265E+02 
  54942.4585     0.39640E+02 
  54974.7206     0.47351E+02 
  55006.9828     0.56269E+02 
  55039.2450     0.66238E+02 
  55071.5071     0.77083E+02 
  55103.7693     0.88610E+02 
  55136.0314     0.10061E+03 
  55168.2936     0.11287E+03 
  55200.5558     0.12517E+03 
  55232.8179     0.13729E+03 
  55265.0801     0.14901E+03 
  55297.3422     0.16012E+03 
  55329.6044     0.17044E+03 
  55361.8666     0.17979E+03 
  55394.1287     0.18805E+03 
  55426.3909     0.19508E+03 
  55458.6530     0.20081E+03 
  55490.9152     0.20519E+03 
  55523.1774     0.20817E+03 
  55555.4395     0.20977E+03 
  55587.7017     0.21000E+03 
  55619.9638     0.20893E+03 
  55652.2260     0.20663E+03 
  55684.4882     0.20318E+03 
  55716.7503     0.19869E+03 
  55749.0125     0.19326E+03 
  55781.2746     0.18701E+03 
  55813.5368     0.18005E+03 
  55845.7990     0.17252E+03 
  55878.0611     0.16453E+03 
  55910.3233     0.15618E+03 
  55942.5854     0.14758E+03 
  55974.8476     0.13883E+03 
  56007.1098     0.13002E+03 
  56039.3719     0.12124E+03 
  56071.6341     0.11257E+03 
  56103.8962     0.10409E+03 
  56136.1584     0.95858E+02 
  56168.4206     0.87953E+02 
  56200.6827     0.80430E+02 
  56232.9449     0.73345E+02 
  56265.2070     0.66753E+02 
  56297.4692     0.60700E+02 
  56329.7314     0.55231E+02 
  56361.9935     0.50383E+02 
  56394.2557     0.46187E+02 
  56426.5178     0.42668E+02 
  56458.7800     0.39845E+02 
  56491.0422     0.37727E+02 
  56523.3043     0.36313E+02 
  56555.5665     0.35594E+02 
  56587.8286     0.35550E+02 
  56620.0908     0.36153E+02 
  56652.3530     0.37365E+02 
  56684.6151     0.39137E+02 
  56716.8773     0.41415E+02 
  56749.1394     0.44135E+02 
  56781.4016     0.47228E+02 
  56813.6638     0.50619E+02 
  56845.9259     0.54229E+02 
  56878.1881     0.57979E+02 
  56910.4502     0.61789E+02 
  56942.7124     0.65584E+02 
  56974.9746     0.69288E+02 
  57007.2367     0.72833E+02 
  57039.4989     0.76155E+02 
  57071.7610     0.79198E+02 
  57104.0232     0.81915E+02 
  57136.2854     0.84267E+02 
  57168.5475     0.86225E+02 
  57200.8097     0.87769E+02 
  57233.0718     0.88885E+02 
  57265.3340     0.89572E+02 
  57297.5962     0.89832E+02 
  57329.8583     0.89677E+02 
  57362.1205     0.89125E+02 
  57394.3826     0.88198E+02 
  57426.6448     0.86924E+02 
  57458.9070     0.85331E+02 
  57491.1691     0.83450E+02 
  57523.4313     0.81316E+02 
  57555.6934     0.78962E+02 
  57587.9556     0.76423E+02 
  57620.2178     0.73734E+02 
  57652.4799     0.70928E+02 
  57684.7421     0.68038E+02 
  57717.0042     0.65094E+02 
  57749.2664     0.62128E+02 
  57781.5286     0.59168E+02 
  57813.7907     0.56242E+02 
  57846.0529     0.53376E+02 
  57878.3150     0.50593E+02 
  57910.5772     0.47917E+02 
  57942.8394     0.45368E+02 
  57975.1015     0.42966E+02 
  58007.3637     0.40727E+02 
  58039.6258     0.38665E+02 
  58071.8880     0.36793E+02 
  58104.1502     0.35120E+02 
  58136.4123     0.33653E+02 
  58168.6745     0.32395E+02 
  58200.9366     0.31348E+02 
  58233.1988     0.30511E+02 
  58265.4610     0.29878E+02 
  58297.7231     0.29441E+02 
  58329.9853     0.29191E+02 
  58362.2474     0.29114E+02 
  58394.5096     0.29196E+02 
  58426.7718     0.29418E+02 
  58459.0339     0.29764E+02 
  58491.2961     0.30213E+02 
  58523.5582     0.30744E+02 
  58555.8204     0.31337E+02 
  58588.0826     0.31970E+02 
  58620.3447     0.32624E+02 
  58652.6069     0.33279E+02 
  58684.8690     0.33916E+02 
  58717.1312     0.34518E+02 
  58749.3934     0.35071E+02 
  58781.6555     0.35562E+02 
  58813.9177     0.35978E+02 
  58846.1798     0.36312E+02 
  58878.4420     0.36555E+02 
  58910.7042     0.36704E+02 
  58942.9663     0.36756E+02 
  58975.2285     0.36710E+02 
  59007.4906     0.36566E+02 
  59039.7528     0.36327E+02 
  59072.0150     0.35997E+02 
  59104.2771     0.35580E+02 
  59136.5393     0.35083E+02 
  59168.8014     0.34512E+02 
  59201.0636     0.33875E+02 
  59233.3258     0.33179E+02 
  59265.5879     0.32431E+02 
  59297.8501     0.31641E+02 
  59330.1122     0.30816E+02 
  59362.3744     0.29964E+02 
  59394.6366     0.29094E+02 
  59426.8987     0.28214E+02 
  59459.1609     0.27330E+02 
  59491.4230     0.26450E+02 
  59523.6852     0.25581E+02 
  59555.9474     0.24729E+02 
  59588.2095     0.23900E+02 
  59620.4717     0.23100E+02 
  59652.7338     0.22333E+02 
  59684.9960     0.21604E+02 
  59717.2582     0.20917E+02 
  59749.5203     0.20274E+02 
  59781.7825     0.19677E+02 
  59814.0446     0.19129E+02 
  59846.3068     0.18630E+02 
  59878.5690     0.18180E+02 
  59910.8311     0.17779E+02 
  59943.0933     0.17426E+02 
  59975.3554     0.17119E+02 
  60007.6176     0.16856E+02 
  60039.8798     0.16633E+02 
  60072.1419     0.16448E+02 
  60104.4041     0.16297E+02 
  60136.6662     0.16175E+02 
  60168.9284     0.16079E+02 
  60201.1906     0.16004E+02 
  60233.4527     0.15947E+02 
  60265.7149     0.15901E+02 
  60297.9770     0.15864E+02 
  60330.2392     0.15832E+02 
  60362.5014     0.15800E+02 
  60394.7635     0.15765E+02 
  60427.0257     0.15724E+02 
  60459.2878     0.15675E+02 
  60491.5500     0.15614E+02 
  60523.8122     0.15541E+02 
  60556.0743     0.15453E+02 
  60588.3365     0.15349E+02 
  60620.5986     0.15229E+02 
  60652.8608     0.15093E+02 
  60685.1230     0.14940E+02 
  60717.3851     0.14771E+02 
  60749.6473     0.14586E+02 
  60781.9094     0.14387E+02 
  60814.1716     0.14173E+02 
  60846.4338     0.13947E+02 
  60878.6959     0.13709E+02 
  60910.9581     0.13462E+02 
  60943.2202     0.13206E+02 
  60975.4824     0.12944E+02 
  61007.7446     0.12676E+02 
  61040.0067     0.12405E+02 
  61072.2689     0.12131E+02 
  61104.5310     0.11857E+02 
  61136.7932     0.11584E+02 
  61169.0554     0.11314E+02 
  61201.3175     0.11047E+02 
  61233.5797     0.10785E+02 
  61265.8418     0.10529E+02 
  61298.1040     0.10280E+02 
  61330.3662     0.10039E+02 
  61362.6283     0.98063E+01 
  61394.8905     0.95833E+01 
  61427.1526     0.93701E+01 
  61459.4148     0.91672E+01 
  61491.6770     0.89746E+01 
  61523.9391     0.87925E+01 
  61556.2013     0.86208E+01 
  61588.4634     0.84593E+01 
  61620.7256     0.83078E+01 
  61652.9878     0.81659E+01 
  61685.2499     0.80330E+01 
  61717.5121     0.79086E+01 
  61749.7742     0.77919E+01 
  61782.0364     0.76824E+01 
  61814.2986     0.75793E+01 
  61846.5607     0.74818E+01 
  61878.8229     0.73890E+01 
  61911.0850     0.73003E+01 
  61943.3472     0.72149E+01 
  61975.6094     0.71321E+01 
  62007.8715     0.70511E+01 
  62040.1337     0.69713E+01 
  62072.3958     0.68922E+01 
  62104.6580     0.68133E+01 
  62136.9202     0.67340E+01 
  62169.1823     0.66540E+01 
  62201.4445     0.65729E+01 
  62233.7066     0.64906E+01 
  62265.9688     0.64069E+01 
  62298.2310     0.63216E+01 
  62330.4931     0.62347E+01 
  62362.7553     0.61462E+01 
  62395.0174     0.60561E+01 
  62427.2796     0.59645E+01 
  62459.5418     0.58716E+01 
  62491.8039     0.57776E+01 
  62524.0661     0.56825E+01 
  62556.3282     0.55867E+01 
  62588.5904     0.54904E+01 
  62620.8526     0.53938E+01 
  62653.1147     0.52971E+01 
  62685.3769     0.52007E+01 
  62717.6390     0.51047E+01 
  62749.9012     0.50095E+01 
  62782.1634     0.49151E+01 
  62814.4255     0.48220E+01 
  62846.6877     0.47302E+01 
  62878.9498     0.46400E+01 
  62911.2120     0.45516E+01 
  62943.4742     0.44651E+01 
  62975.7363     0.43806E+01 
  63007.9985     0.42983E+01 
  63040.2606     0.42182E+01 
  63072.5228     0.41404E+01 
  63104.7850     0.40650E+01 
  63137.0471     0.39920E+01 
  63169.3093     0.39213E+01 
  63201.5714     0.38531E+01 
  63233.8336     0.37871E+01 
  63266.0958     0.37233E+01 
  63298.3579     0.36618E+01 
  63330.6201     0.36023E+01 
  63362.8822     0.35448E+01 
  63395.1444     0.34892E+01 
  63427.4066     0.34353E+01 
  63459.6687     0.33831E+01 
  63491.9309     0.33323E+01 
  63524.1930     0.32829E+01 
  63556.4552     0.32347E+01 
  63588.7174     0.31876E+01 
  63620.9795     0.31415E+01 
  63653.2417     0.30962E+01 
  63685.5038     0.30518E+01 
  63717.7660     0.30079E+01 
  63750.0282     0.29647E+01 
  63782.2903     0.29220E+01 
  63814.5525     0.28797E+01 
  63846.8146     0.28377E+01 
  63879.0768     0.27961E+01 
  63911.3390     0.27548E+01 
  63943.6011     0.27138E+01 
  63975.8633     0.26730E+01 
  64008.1254     0.26325E+01 
  64040.3876     0.25922E+01 
  64072.6498     0.25521E+01 
  64104.9119     0.25123E+01 
  64137.1741     0.24728E+01 
  64169.4362     0.24336E+01 
  64201.6984     0.23948E+01 
  64233.9606     0.23562E+01 
  64266.2227     0.23181E+01 
  64298.4849     0.22804E+01 
  64330.7470     0.22431E+01 
  64363.0092     0.22063E+01 
  64395.2714     0.21700E+01 
  64427.5335     0.21342E+01 
  64459.7957     0.20990E+01 
  64492.0578     0.20643E+01 
  64524.3200     0.20303E+01 
  64556.5822     0.19969E+01 
  64588.8443     0.19641E+01 
  64621.1065     0.19319E+01 
  64653.3686     0.19005E+01 
  64685.6308     0.18696E+01 
  64717.8930     0.18395E+01 
  64750.1551     0.18100E+01 
  64782.4173     0.17812E+01 
  64814.6794     0.17530E+01 
  64846.9416     0.17254E+01 
  64879.2038     0.16985E+01 
  64911.4659     0.16722E+01 
  64943.7281     0.16465E+01 
  64975.9902     0.16213E+01 
  65008.2524     0.15967E+01 
  65040.5146     0.15726E+01 
  65072.7767     0.15491E+01 
  65105.0389     0.15260E+01 
  65137.3010     0.15034E+01 
  65169.5632     0.14812E+01 
  65201.8254     0.14594E+01 
  65234.0875     0.14381E+01 
  65266.3497     0.14171E+01 
  65298.6118     0.13964E+01 
  65330.8740     0.13761E+01 
  65363.1362     0.13561E+01 
  65395.3983     0.13364E+01 
  65427.6605     0.13170E+01 
  65459.9226     0.12979E+01 
  65492.1848     0.12790E+01 
  65524.4470     0.12604E+01 
  65556.7091     0.12421E+01 
  65588.9713     0.12240E+01 
  65621.2334     0.12061E+01 
  65653.4956     0.11885E+01 
  65685.7578     0.11710E+01 
  65718.0199     0.11538E+01 
  65750.2821     0.11369E+01 
  65782.5442     0.11201E+01 
  65814.8064     0.11036E+01 
  65847.0686     0.10873E+01 
  65879.3307     0.10713E+01 
  65911.5929     0.10555E+01 
  65943.8550     0.10399E+01 
  65976.1172     0.10245E+01 
  66008.3794     0.10093E+01 
  66040.6415     0.99443E+00 
  66072.9037     0.97975E+00 
  66105.1658     0.96531E+00 
  66137.4280     0.95110E+00 
  66169.6902     0.93712E+00 
  66201.9523     0.92338E+00 
  66234.2145     0.90986E+00 
  66266.4766     0.89658E+00 
  66298.7388     0.88353E+00 
  66331.0010     0.87070E+00 
  66363.2631     0.85810E+00 
  66395.5253     0.84572E+00 
  66427.7874     0.83355E+00 
  66460.0496     0.82160E+00 
  66492.3118     0.80986E+00 
  66524.5739     0.79832E+00 
  66556.8361     0.78699E+00 
  66589.0982     0.77584E+00 
  66621.3604     0.76490E+00 
  66653.6226     0.75413E+00 
  66685.8847     0.74355E+00 
  66718.1469     0.73315E+00 
  66750.4090     0.72291E+00 
  66782.6712     0.71284E+00 
  66814.9334     0.70293E+00 
  66847.1955     0.69318E+00 
  66879.4577     0.68358E+00 
  66911.7198     0.67413E+00 
  66943.9820     0.66482E+00 
  66976.2442     0.65566E+00 
  67008.5063     0.64662E+00 
  67040.7685     0.63772E+00 
  67073.0306     0.62895E+00 
  67105.2928     0.62031E+00 
  67137.5550     0.61178E+00 
  67169.8171     0.60338E+00 
  67202.0793     0.59510E+00 
  67234.3414     0.58693E+00 
  67266.6036     0.57888E+00 
  67298.8658     0.57094E+00 
  67331.1279     0.56311E+00 
  67363.3901     0.55539E+00 
  67395.6522     0.54778E+00 
  67427.9144     0.54028E+00 
  67460.1766     0.53288E+00 
  67492.4387     0.52558E+00 
  67524.7009     0.51839E+00 
  67556.9630     0.51130E+00 
  67589.2252     0.50431E+00 
  67621.4874     0.49742E+00 
  67653.7495     0.49063E+00 
  67686.0117     0.48393E+00 
  67718.2738     0.47734E+00 
  67750.5360     0.47084E+00 
  67782.7982     0.46443E+00 
  67815.0603     0.45812E+00 
  67847.3225     0.45189E+00 
  67879.5846     0.44576E+00 
  67911.8468     0.43972E+00 
  67944.1090     0.43377E+00 
  67976.3711     0.42790E+00 
  68008.6333     0.42212E+00 
  68040.8954     0.41643E+00 
  68073.1576     0.41081E+00 
  68105.4198     0.40528E+00 
  68137.6819     0.39983E+00 
  68169.9441     0.39446E+00 
  68202.2062     0.38916E+00 
  68234.4684     0.38394E+00 
  68266.7306     0.37879E+00 
  68298.9927     0.37372E+00 
  68331.2549     0.36871E+00 
  68363.5170     0.36378E+00 
  68395.7792     0.35892E+00 
  68428.0414     0.35412E+00 
  68460.3035     0.34939E+00 
  68492.5657     0.34472E+00 
  68524.8278     0.34011E+00 
  68557.0900     0.33557E+00 
  68589.3522     0.33109E+00 
  68621.6143     0.32667E+00 
  68653.8765     0.32230E+00 
  68686.1386     0.31800E+00 
  68718.4008     0.31375E+00 
  68750.6630     0.30956E+00 
  68782.9251     0.30542E+00 
  68815.1873     0.30133E+00 
  68847.4494     0.29730E+00 
  68879.7116     0.29332E+00 
  68911.9738     0.28939E+00 
  68944.2359     0.28551E+00 
  68976.4981     0.28168E+00 
  69008.7602     0.27791E+00 
  69041.0224     0.27417E+00 
  69073.2846     0.27049E+00 
  69105.5467     0.26686E+00 
  69137.8089     0.26327E+00 
  69170.0710     0.25972E+00 
  69202.3332     0.25622E+00 
  69234.5954     0.25277E+00 
  69266.8575     0.24936E+00 
  69299.1197     0.24599E+00 
  69331.3818     0.24267E+00 
  69363.6440     0.23938E+00 
  69395.9062     0.23614E+00 
  69428.1683     0.23294E+00 
  69460.4305     0.22978E+00 
  69492.6926     0.22666E+00 
  69524.9548     0.22358E+00 
  69557.2170     0.22054E+00 
  69589.4791     0.21754E+00 
  69621.7413     0.21457E+00 
  69654.0034     0.21164E+00 
  69686.2656     0.20875E+00 
  69718.5278     0.20589E+00 
  69750.7899     0.20307E+00 
  69783.0521     0.20029E+00 
  69815.3142     0.19753E+00 
  69847.5764     0.19481E+00 
  69879.8386     0.19213E+00 
  69912.1007     0.18948E+00 
  69944.3629     0.18686E+00 
  69976.6250     0.18427E+00 
  70008.8872     0.18171E+00 
  70041.1494     0.17919E+00 
  70073.4115     0.17669E+00 
  70105.6737     0.17422E+00 
  70137.9358     0.17179E+00 
  70170.1980     0.16938E+00 
  70202.4602     0.16700E+00 
  70234.7223     0.16465E+00 
  70266.9845     0.16233E+00 
  70299.2466     0.16003E+00 
  70331.5088     0.15777E+00 
  70363.7710     0.15552E+00 
  70396.0331     0.15331E+00 
  70428.2953     0.15112E+00 
  70460.5574     0.14896E+00 
  70492.8196     0.14682E+00 
  70525.0818     0.14470E+00 
  70557.3439     0.14261E+00 
  70589.6061     0.14055E+00 
  70621.8682     0.13851E+00 
  70654.1304     0.13649E+00 
  70686.3926     0.13450E+00 
  70718.6547     0.13253E+00 
  70750.9169     0.13058E+00 
  70783.1790     0.12865E+00 
  70815.4412     0.12675E+00 
  70847.7034     0.12487E+00 
  70879.9655     0.12301E+00 
  70912.2277     0.12117E+00 
  70944.4898     0.11935E+00 
  70976.7520     0.11756E+00 
  71009.0142     0.11578E+00 
  71041.2763     0.11402E+00 
  71073.5385     0.11229E+00 
  71105.8006     0.11057E+00 
  71138.0628     0.10888E+00 
  71170.3250     0.10720E+00 
  71202.5871     0.10554E+00 
  71234.8493     0.10390E+00 
  71267.1114     0.10228E+00 
  71299.3736     0.10068E+00 
  71331.6358     0.99100E-01 
  71363.8979     0.97535E-01 
  71396.1601     0.95988E-01 
  71428.4222     0.94458E-01 
  71460.6844     0.92946E-01 
  71492.9466     0.91451E-01 
  71525.2087     0.89973E-01 
  71557.4709     0.88512E-01 
  71589.7330     0.87068E-01 
  71621.9952     0.85640E-01 
  71654.2574     0.84228E-01 
  71686.5195     0.82832E-01 
  71718.7817     0.81453E-01 
  71751.0438     0.80089E-01 
  71783.3060     0.78740E-01 
  71815.5682     0.77407E-01 
  71847.8303     0.76089E-01 
  71880.0925     0.74786E-01 
  71912.3546     0.73499E-01 
  71944.6168     0.72225E-01 
  71976.8790     0.70967E-01 
  72009.1411     0.69723E-01 
  72041.4033     0.68493E-01 
  72073.6654     0.67277E-01 
  72105.9276     0.66076E-01 
  72138.1898     0.64888E-01 
  72170.4519     0.63714E-01 
  72202.7141     0.62554E-01 
  72234.9762     0.61407E-01 
  72267.2384     0.60274E-01 
  72299.5006     0.59153E-01 
  72331.7627     0.58046E-01 
  72364.0249     0.56952E-01 
  72396.2870     0.55871E-01 
  72428.5492     0.54803E-01 
  72460.8114     0.53747E-01 
  72493.0735     0.52704E-01 
  72525.3357     0.51673E-01 
  72557.5978     0.50655E-01 
  72589.8600     0.49648E-01 
