     4.00000     0.74556646E-01
     4.00400     0.75527756E-01
     4.00800     0.76501423E-01
     4.01200     0.77477684E-01
     4.01600     0.78456577E-01
     4.02000     0.79438140E-01
     4.02400     0.80422409E-01
     4.02800     0.81409425E-01
     4.03200     0.82399224E-01
     4.03600     0.83391847E-01
     4.04000     0.84387331E-01
     4.04400     0.85385716E-01
     4.04800     0.86387041E-01
     4.05200     0.87391346E-01
     4.05600     0.88398672E-01
     4.06000     0.89409057E-01
     4.06400     0.90422544E-01
     4.06800     0.91439172E-01
     4.07200     0.92458984E-01
     4.07600     0.93482020E-01
     4.08000     0.94508321E-01
     4.08400     0.95537931E-01
     4.08800     0.96570891E-01
     4.09200     0.97607245E-01
     4.09600     0.98647034E-01
     4.10000     0.99690303E-01
     4.10400     0.10073709    
     4.10800     0.10178745    
     4.11200     0.10284142    
     4.11600     0.10389905    
     4.12000     0.10496038    
     4.12400     0.10602545    
     4.12800     0.10709431    
     4.13200     0.10816702    
     4.13600     0.10924360    
     4.14000     0.11032412    
     4.14400     0.11140862    
     4.14800     0.11249714    
     4.15200     0.11358973    
     4.15600     0.11468645    
     4.16000     0.11578734    
     4.16400     0.11689245    
     4.16800     0.11800183    
     4.17200     0.11911553    
     4.17600     0.12023360    
     4.18000     0.12135609    
     4.18400     0.12248305    
     4.18800     0.12361454    
     4.19200     0.12475060    
     4.19600     0.12589129    
     4.20000     0.12703667    
     4.20400     0.12818678    
     4.20800     0.12934168    
     4.21200     0.13050143    
     4.21600     0.13166607    
     4.22000     0.13283567    
     4.22400     0.13401028    
     4.22800     0.13518996    
     4.23200     0.13637477    
     4.23600     0.13756476    
     4.24000     0.13875999    
     4.24400     0.13996052    
     4.24800     0.14116641    
     4.25200     0.14237772    
     4.25600     0.14359451    
     4.26000     0.14481683    
     4.26400     0.14604477    
     4.26800     0.14727836    
     4.27200     0.14851769    
     4.27600     0.14976280    
     4.28000     0.15101378    
     4.28400     0.15227067    
     4.28800     0.15353355    
     4.29200     0.15480247    
     4.29600     0.15607752    
     4.30000     0.15735876    
     4.30400     0.15864624    
     4.30800     0.15994005    
     4.31200     0.16124026    
     4.31600     0.16254692    
     4.32000     0.16386012    
     4.32400     0.16517993    
     4.32800     0.16650641    
     4.33200     0.16783964    
     4.33600     0.16917970    
     4.34000     0.17052666    
     4.34400     0.17188059    
     4.34800     0.17324158    
     4.35200     0.17460969    
     4.35600     0.17598502    
     4.36000     0.17736762    
     4.36400     0.17875760    
     4.36800     0.18015502    
     4.37200     0.18155997    
     4.37600     0.18297252    
     4.38000     0.18439278    
     4.38400     0.18582081    
     4.38800     0.18725670    
     4.39200     0.18870054    
     4.39600     0.19015242    
     4.40000     0.19161243    
     4.40400     0.19308064    
     4.40800     0.19455716    
     4.41200     0.19604208    
     4.41600     0.19753549    
     4.42000     0.19903747    
     4.42400     0.20054813    
     4.42800     0.20206756    
     4.43200     0.20359586    
     4.43600     0.20513312    
     4.44000     0.20667944    
     4.44400     0.20823493    
     4.44800     0.20979969    
     4.45200     0.21137381    
     4.45600     0.21295740    
     4.46000     0.21455057    
     4.46400     0.21615342    
     4.46800     0.21776606    
     4.47200     0.21938860    
     4.47600     0.22102114    
     4.48000     0.22266381    
     4.48400     0.22431671    
     4.48800     0.22597996    
     4.49200     0.22765367    
     4.49600     0.22933796    
     4.50000     0.23103294    
     4.50400     0.23273875    
     4.50800     0.23445549    
     4.51200     0.23618330    
     4.51600     0.23792229    
     4.52000     0.23967260    
     4.52400     0.24143435    
     4.52800     0.24320767    
     4.53200     0.24499270    
     4.53600     0.24678955    
     4.54000     0.24859838    
     4.54400     0.25041931    
     4.54800     0.25225249    
     4.55200     0.25409805    
     4.55600     0.25595613    
     4.56000     0.25782688    
     4.56400     0.25971045    
     4.56800     0.26160698    
     4.57200     0.26351662    
     4.57600     0.26543952    
     4.58000     0.26737584    
     4.58400     0.26932573    
     4.58800     0.27128935    
     4.59200     0.27326686    
     4.59600     0.27525842    
     4.60000     0.27726419    
     4.60400     0.27928435    
     4.60800     0.28131905    
     4.61200     0.28336848    
     4.61600     0.28543280    
     4.62000     0.28751219    
     4.62400     0.28960683    
     4.62800     0.29171690    
     4.63200     0.29384258    
     4.63600     0.29598406    
     4.64000     0.29814153    
     4.64400     0.30031517    
     4.64800     0.30250519    
     4.65200     0.30471178    
     4.65600     0.30693514    
     4.66000     0.30917547    
     4.66400     0.31143298    
     4.66800     0.31370788    
     4.67200     0.31600037    
     4.67600     0.31831067    
     4.68000     0.32063901    
     4.68400     0.32298559    
     4.68800     0.32535065    
     4.69200     0.32773442    
     4.69600     0.33013712    
     4.70000     0.33255899    
     4.70400     0.33500026    
     4.70800     0.33746119    
     4.71200     0.33994201    
     4.71600     0.34244297    
     4.72000     0.34496434    
     4.72400     0.34750635    
     4.72800     0.35006928    
     4.73200     0.35265339    
     4.73600     0.35525895    
     4.74000     0.35788624    
     4.74400     0.36053552    
     4.74800     0.36320708    
     4.75200     0.36590122    
     4.75600     0.36861821    
     4.76000     0.37135836    
     4.76400     0.37412196    
     4.76800     0.37690933    
     4.77200     0.37972076    
     4.77600     0.38255659    
     4.78000     0.38541712    
     4.78400     0.38830268    
     4.78800     0.39121360    
     4.79200     0.39415023    
     4.79600     0.39711289    
     4.80000     0.40010195    
     4.80400     0.40311774    
     4.80800     0.40616064    
     4.81200     0.40923101    
     4.81600     0.41232921    
     4.82000     0.41545563    
     4.82400     0.41861066    
     4.82800     0.42179467    
     4.83200     0.42500807    
     4.83600     0.42825127    
     4.84000     0.43152467    
     4.84400     0.43482870    
     4.84800     0.43816378    
     4.85200     0.44153033    
     4.85600     0.44492882    
     4.86000     0.44835967    
     4.86400     0.45182336    
     4.86800     0.45532034    
     4.87200     0.45885109    
     4.87600     0.46241609    
     4.88000     0.46601582    
     4.88400     0.46965080    
     4.88800     0.47332153    
     4.89200     0.47702852    
     4.89600     0.48077231    
     4.90000     0.48455342    
     4.90400     0.48837242    
     4.90800     0.49222985    
     4.91200     0.49612628    
     4.91600     0.50006230    
     4.92000     0.50403848    
     4.92400     0.50805544    
     4.92800     0.51211378    
     4.93200     0.51621413    
     4.93600     0.52035712    
     4.94000     0.52454340    
     4.94400     0.52877363    
     4.94800     0.53304850    
     4.95200     0.53736867    
     4.95600     0.54173486    
     4.96000     0.54614778    
     4.96400     0.55060815    
     4.96800     0.55511672    
     4.97200     0.55967425    
     4.97600     0.56428152    
     4.98000     0.56893930    
     4.98400     0.57364841    
     4.98800     0.57840967    
     4.99200     0.58322392    
     4.99600     0.58809202    
     5.00000     0.59301483    
     5.00400     0.59799325    
     5.00800     0.60302819    
     5.01200     0.60812059    
     5.01600     0.61327139    
     5.02000     0.61848156    
     5.02400     0.62375210    
     5.02800     0.62908402    
     5.03200     0.63447835    
     5.03600     0.63993615    
     5.04000     0.64545851    
     5.04400     0.65104653    
     5.04800     0.65670133    
     5.05200     0.66242408    
     5.05600     0.66821595    
     5.06000     0.67407815    
     5.06400     0.68001191    
     5.06800     0.68601851    
     5.07200     0.69209922    
     5.07600     0.69825538    
     5.08000     0.70448833    
     5.08400     0.71079946    
     5.08800     0.71719019    
     5.09200     0.72366197    
     5.09600     0.73021627    
     5.10000     0.73685464    
     5.10400     0.74357861    
     5.10800     0.75038978    
     5.11200     0.75728980    
     5.11600     0.76428032    
     5.12000     0.77136308    
     5.12400     0.77853982    
     5.12800     0.78581235    
     5.13200     0.79318251    
     5.13600     0.80065221    
     5.14000     0.80822337    
     5.14400     0.81589800    
     5.14800     0.82367813    
     5.15200     0.83156587    
     5.15600     0.83956336    
     5.16000     0.84767282    
     5.16400     0.85589650    
     5.16800     0.86423674    
     5.17200     0.87269592    
     5.17600     0.88127651    
     5.18000     0.88998102    
     5.18400     0.89881203    
     5.18800     0.90777223    
     5.19200     0.91686433    
     5.19600     0.92609115    
     5.20000     0.93545559    
     5.20400     0.94496061    
     5.20800     0.95460929    
     5.21200     0.96440476    
     5.21600     0.97435026    
     5.22000     0.98444914    
     5.22400     0.99470481    
     5.22800      1.0051208    
     5.23200      1.0157008    
     5.23600      1.0264485    
     5.24000      1.0373678    
     5.24400      1.0484627    
     5.24800      1.0597373    
     5.25200      1.0711958    
     5.25600      1.0828426    
     5.26000      1.0946821    
     5.26400      1.1067192    
     5.26800      1.1189584    
     5.27200      1.1314049    
     5.27600      1.1440637    
     5.28000      1.1569401    
     5.28400      1.1700395    
     5.28800      1.1833677    
     5.29200      1.1969305    
     5.29600      1.2107338    
     5.30000      1.2247840    
     5.30400      1.2390876    
     5.30800      1.2536511    
     5.31200      1.2684816    
     5.31600      1.2835863    
     5.32000      1.2989725    
     5.32400      1.3146481    
     5.32800      1.3306209    
     5.33200      1.3468993    
     5.33600      1.3634919    
     5.34000      1.3804077    
     5.34400      1.3976560    
     5.34800      1.4152463    
     5.35200      1.4331887    
     5.35600      1.4514937    
     5.36000      1.4701720    
     5.36400      1.4892350    
     5.36800      1.5086944    
     5.37200      1.5285624    
     5.37600      1.5488517    
     5.38000      1.5695758    
     5.38400      1.5907483    
     5.38800      1.6123838    
     5.39200      1.6344973    
     5.39600      1.6571047    
     5.40000      1.6802223    
     5.40400      1.7038674    
     5.40800      1.7280581    
     5.41200      1.7528131    
     5.41600      1.7781522    
     5.42000      1.8040961    
     5.42400      1.8306665    
     5.42800      1.8578861    
     5.43200      1.8857789    
     5.43600      1.9143699    
     5.44000      1.9436855    
     5.44400      1.9737535    
     5.44800      2.0046031    
     5.45200      2.0362651    
     5.45600      2.0687719    
     5.46000      2.1021577    
     5.46400      2.1364586    
     5.46800      2.1717129    
     5.47200      2.2079609    
     5.47600      2.2452453    
     5.48000      2.2836115    
     5.48400      2.3231074    
     5.48800      2.3637839    
     5.49200      2.4056952    
     5.49600      2.4488988    
     5.50000      2.4934559    
     5.50400      2.5394318    
     5.50800      2.5868962    
     5.51200      2.6359233    
     5.51600      2.6865926    
     5.52000      2.7389892    
     5.52400      2.7932042    
     5.52800      2.8493354    
     5.53200      2.9074880    
     5.53600      2.9677749    
     5.54000      3.0303180    
     5.54400      3.0952488    
     5.54800      3.1627091    
     5.55200      3.2328526    
     5.55600      3.3058460    
     5.56000      3.3818699    
     5.56400      3.4611211    
     5.56800      3.5438137    
     5.57200      3.6301814    
     5.57600      3.7204799    
     5.58000      3.8149891    
     5.58400      3.9140164    
     5.58800      4.0178998    
     5.59200      4.1270118    
     5.59600      4.2417640    
     5.60000      4.3626120    
     5.60400      4.4900612    
     5.60800      4.6246738    
     5.61200      4.7670767    
     5.61600      4.9179701    
     5.62000      5.0781387    
     5.62400      5.2484637    
     5.62800      5.4299371    
     5.63200      5.6236785    
     5.63600      5.8309545    
     5.64000      6.0532013    
     5.64400      6.2920509    
     5.64800      6.5493616    
     5.65200      6.8272526    
     5.65600      7.1281434    
     5.66000      7.4547988    
     5.66400      7.8103765    
     5.66800      8.1984791    
     5.67200      8.6232043    
     5.67600      9.0891898    
     5.68000      9.6016418    
     5.68400      10.166332    
     5.68800      10.789537    
     5.69200      11.477883    
     5.69600      12.238036    
     5.70000      13.076178    
     5.70400      13.997151    
     5.70800      15.003223    
     5.71200      16.092381    
     5.71600      17.256275    
     5.72000      18.478086    
     5.72400      19.730975    
     5.72800      20.978075    
     5.73200      22.175044    
     5.73600      23.275621    
     5.74000      24.239437    
     5.74400      25.039917    
     5.74800      25.669516    
     5.75200      26.140430    
     5.75600      26.480847    
     5.76000      26.728555    
     5.76400      26.924174    
     5.76800      27.105580    
     5.77200      27.304040    
     5.77600      27.541949    
     5.78000      27.832053    
     5.78400      28.178172    
     5.78800      28.577419    
     5.79200      29.023591    
     5.79600      29.510935    
     5.80000      30.037107    
     5.80400      30.604334    
     5.80800      31.218364    
     5.81200      31.885601    
     5.81600      32.609410    
     5.82000      33.386763    
     5.82400      34.206285    
     5.82800      35.048481    
     5.83200      35.888495    
     5.83600      36.701027    
     5.84000      37.466145    
     5.84400      38.174224    
     5.84800      38.828380    
     5.85200      39.443826    
     5.85600      40.044723    
     5.86000      40.659890    
     5.86400      41.318672    
     5.86800      42.047710    
     5.87200      42.868701    
     5.87600      43.796966    
     5.88000      44.840764    
     5.88400      46.001551    
     5.88800      47.275410    
     5.89200      48.655421    
     5.89600      50.134077    
     5.90000      51.704364    
     5.90400      53.358442    
     5.90800      55.083860    
     5.91200      56.858589    
     5.91600      58.647085    
     5.92000      60.399644    
     5.92400      62.056434    
     5.92800      63.555968    
     5.93200      64.845917    
     5.93600      65.892895    
     5.94000      66.688023    
     5.94400      67.246810    
     5.94800      67.604272    
     5.95200      67.807695    
     5.95600      67.909386    
     5.96000      67.960566    
     5.96400      68.006546    
     5.96800      68.083026    
     5.97200      68.213793    
     5.97600      68.410367    
     5.98000      68.673964    
     5.98400      68.999463    
     5.98800      69.380216    
     5.99200      69.812110    
     5.99600      70.295415    
     6.00000      70.833795    
     6.00400      71.430925    
     6.00800      72.086051    
     6.01200      72.790162    
     6.01600      73.524284    
     6.02000      74.260772    
     6.02400      74.967604    
     6.02800      75.614622    
     6.03200      76.179876    
     6.03600      76.654052    
     6.04000      77.041771    
     6.04400      77.359841    
     6.04800      77.633632    
     6.05200      77.892982    
     6.05600      78.168537    
     6.06000      78.488646    
     6.06400      78.876645    
     6.06800      79.348535    
     6.07200      79.911570    
     6.07600      80.564441    
     6.08000      81.299369    
     6.08400      82.105526    
     6.08800      82.972354    
     6.09200      83.891123    
     6.09600      84.853788    
     6.10000      85.849557    
     6.10400      86.860805    
     6.10800      87.860448    
     6.11200      88.812345    
     6.11600      89.675113    
     6.12000      90.408389    
     6.12400      90.979674    
     6.12800      91.369618    
     6.13200      91.574334    
     6.13600      91.604562    
     6.14000      91.482661    
     6.14400      91.238821    
     6.14800      90.907420    
     6.15200      90.523705    
     6.15600      90.120599    
     6.16000      89.725690    
     6.16400      89.358921    
     6.16800      89.031727    
     6.17200      88.748002    
     6.17600      88.506652    
     6.18000      88.304797    
     6.18400      88.140421    
     6.18800      88.013452    
     6.19200      87.924961    
     6.19600      87.874919    
     6.20000      87.859585    
     6.20400      87.869673    
     6.20800      87.890174    
     6.21200      87.902052    
     6.21600      87.885388    
     6.22000      87.823027    
     6.22400      87.703621    
     6.22800      87.523221    
     6.23200      87.285248    
     6.23600      86.999255    
     6.24000      86.679208    
     6.24400      86.341774    
     6.24800      86.004669    
     6.25200      85.684878    
     6.25600      85.396691    
     6.26000      85.149902    
     6.26400      84.948794    
     6.26800      84.792419    
     6.27200      84.676176    
     6.27600      84.594015    
     6.28000      84.540258    
     6.28400      84.510147    
     6.28800      84.498903    
     6.29200      84.499850    
     6.29600      84.502669    
     6.30000      84.492766    
     6.30400      84.452199    
     6.30800      84.361937    
     6.31200      84.204694    
     6.31600      83.967485    
     6.32000      83.643218    
     6.32400      83.231104    
     6.32800      82.736099    
     6.33200      82.167860    
     6.33600      81.539582    
     6.34000      80.866829    
     6.34400      80.166209    
     6.34800      79.453803    
     6.35200      78.743518    
     6.35600      78.045793    
     6.36000      77.367105    
     6.36400      76.710436    
     6.36800      76.076470    
     6.37200      75.464994    
     6.37600      74.875909    
     6.38000      74.309469    
     6.38400      73.765737    
     6.38800      73.243597    
     6.39200      72.739867    
     6.39600      72.248961    
     6.40000      71.763304    
     6.40400      71.274401    
     6.40800      70.774189    
     6.41200      70.256279    
     6.41600      69.716755    
     6.42000      69.154431    
     6.42400      68.570668    
     6.42800      67.968999    
     6.43200      67.354711    
     6.43600      66.734397    
     6.44000      66.115345    
     6.44400      65.504694    
     6.44800      64.908449    
     6.45200      64.330654    
     6.45600      63.773050    
     6.46000      63.235352    
     6.46400      62.716012    
     6.46800      62.213069    
     6.47200      61.724687    
     6.47600      61.249130    
     6.48000      60.784263    
     6.48400      60.326913    
     6.48800      59.872482    
     6.49200      59.415056    
     6.49600      58.948009    
     6.50000      58.464875    
     6.50400      57.960194    
     6.50800      57.430114    
     6.51200      56.872663    
     6.51600      56.287748    
     6.52000      55.677004    
     6.52400      55.043595    
     6.52800      54.391996    
     6.53200      53.727674    
     6.53600      53.056612    
     6.54000      52.384678    
     6.54400      51.716979    
     6.54800      51.057397    
     6.55200      50.408460    
     6.55600      49.771564    
     6.56000      49.147391    
     6.56400      48.536327    
     6.56800      47.938680    
     6.57200      47.354637    
     6.57600      46.784019    
     6.58000      46.226004    
     6.58400      45.678977    
     6.58800      45.140607    
     6.59200      44.608137    
     6.59600      44.078776    
     6.60000      43.550075    
     6.60400      43.020188    
     6.60800      42.487981    
     6.61200      41.953048    
     6.61600      41.415674    
     6.62000      40.876801    
     6.62400      40.337978    
     6.62800      39.801247    
     6.63200      39.268918    
     6.63600      38.743241    
     6.64000      38.226056    
     6.64400      37.718556    
     6.64800      37.221244    
     6.65200      36.734080    
     6.65600      36.256725    
     6.66000      35.788748    
     6.66400      35.329700    
     6.66800      34.879026    
     6.67200      34.435901    
     6.67600      33.999108    
     6.68000      33.567023    
     6.68400      33.137753    
     6.68800      32.709356    
     6.69200      32.280073    
     6.69600      31.848491    
     6.70000      31.413634    
     6.70400      30.974983    
     6.70800      30.532474    
     6.71200      30.086490    
     6.71600      29.637857    
     6.72000      29.187810    
     6.72400      28.737895    
     6.72800      28.289818    
     6.73200      27.845235    
     6.73600      27.405570    
     6.74000      26.971908    
     6.74400      26.544982    
     6.74800      26.125258    
     6.75200      25.713035    
     6.75600      25.308529    
     6.76000      24.911880    
     6.76400      24.523114    
     6.76800      24.142067    
     6.77200      23.768349    
     6.77600      23.401355    
     6.78000      23.040331    
     6.78400      22.684475    
     6.78800      22.333031    
     6.79200      21.985359    
     6.79600      21.640962    
     6.80000      21.299498    
     6.80400      20.960785    
     6.80800      20.624811    
     6.81200      20.291750    
     6.81600      19.961953    
     6.82000      19.635913    
     6.82400      19.314189    
     6.82800      18.997304    
     6.83200      18.685664    
     6.83600      18.379510    
     6.84000      18.078934    
     6.84400      17.783920    
     6.84800      17.494402    
     6.85200      17.210287    
     6.85600      16.931446    
     6.86000      16.657686    
     6.86400      16.388713    
     6.86800      16.124125    
     6.87200      15.863439    
     6.87600      15.606142    
     6.88000      15.351742    
     6.88400      15.099808    
     6.88800      14.849998    
     6.89200      14.602055    
     6.89600      14.355818    
     6.90000      14.111224    
     6.90400      13.868320    
     6.90800      13.627267    
     6.91200      13.388331    
     6.91600      13.151854    
     6.92000      12.918211    
     6.92400      12.687755    
     6.92800      12.460783    
     6.93200      12.237517    
     6.93600      12.018112    
     6.94000      11.802672    
     6.94400      11.591272    
     6.94800      11.383959    
     6.95200      11.180747    
     6.95600      10.981601    
     6.96000      10.786429    
     6.96400      10.595081    
     6.96800      10.407364    
     6.97200      10.223064    
     6.97600      10.041970    
     6.98000      9.8638871    
     6.98400      9.6886429    
     6.98800      9.5160918    
     6.99200      9.3461161    
     6.99600      9.1786320    
     7.00000      9.0135971    
     7.00400      8.8510155    
     7.00800      8.6909347    
     7.01200      8.5334327    
     7.01600      8.3785969    
     7.02000      8.2265031    
     7.02400      8.0772006    
     7.02800      7.9307084    
     7.03200      7.7870210    
     7.03600      7.6461179    
     7.04000      7.5079701    
     7.04400      7.3725394    
     7.04800      7.2397721    
     7.05200      7.1095923    
     7.05600      6.9818990    
     7.06000      6.8565705    
     7.06400      6.7334741    
     7.06800      6.6124775    
     7.07200      6.4934577    
     7.07600      6.3763060    
     7.08000      6.2609287    
     7.08400      6.1472479    
     7.08800      6.0352036    
     7.09200      5.9247569    
     7.09600      5.8158942    
     7.10000      5.7086275    
     7.10400      5.6029916    
     7.10800      5.4990352    
     7.11200      5.3968116    
     7.11600      5.2963686    
     7.12000      5.1977432    
     7.12400      5.1009606    
     7.12800      5.0060356    
     7.13200      4.9129763    
     7.13600      4.8217844    
     7.14000      4.7324542    
     7.14400      4.6449697    
     7.14800      4.5593017    
     7.15200      4.4754082    
     7.15600      4.3932365    
     7.16000      4.3127280    
     7.16400      4.2338222    
     7.16800      4.1564606    
     7.17200      4.0805876    
     7.17600      4.0061510    
     7.18000      3.9331029    
     7.18400      3.8614004    
     7.18800      3.7910084    
     7.19200      3.7219010    
     7.19600      3.6540628    
     7.20000      3.5874865    
     7.20400      3.5221704    
     7.20800      3.4581131    
     7.21200      3.3953113    
     7.21600      3.3337571    
     7.22000      3.2734388    
     7.22400      3.2143423    
     7.22800      3.1564516    
     7.23200      3.0997492    
     7.23600      3.0442149    
     7.24000      2.9898242    
     7.24400      2.9365476    
     7.24800      2.8843514    
     7.25200      2.8331987    
     7.25600      2.7830524    
     7.26000      2.7338763    
     7.26400      2.6856364    
     7.26800      2.6383010    
     7.27200      2.5918408    
     7.27600      2.5462293    
     7.28000      2.5014435    
     7.28400      2.4574652    
     7.28800      2.4142810    
     7.29200      2.3718830    
     7.29600      2.3302671    
     7.30000      2.2894314    
     7.30400      2.2493745    
     7.30800      2.2100945    
     7.31200      2.1715877    
     7.31600      2.1338495    
     7.32000      2.0968740    
     7.32400      2.0606547    
     7.32800      2.0251836    
     7.33200      1.9904513    
     7.33600      1.9564457    
     7.34000      1.9231526    
     7.34400      1.8905553    
     7.34800      1.8586361    
     7.35200      1.8273766    
     7.35600      1.7967582    
     7.36000      1.7667631    
     7.36400      1.7373737    
     7.36800      1.7085729    
     7.37200      1.6803444    
     7.37600      1.6526731    
     7.38000      1.6255454    
     7.38400      1.5989500    
     7.38800      1.5728771    
     7.39200      1.5473187    
     7.39600      1.5222673    
     7.40000      1.4977157    
     7.40400      1.4736564    
     7.40800      1.4500815    
     7.41200      1.4269830    
     7.41600      1.4043528    
     7.42000      1.3821827    
     7.42400      1.3604641    
     7.42800      1.3391880    
     7.43200      1.3183444    
     7.43600      1.2979227    
     7.44000      1.2779119    
     7.44400      1.2583005    
     7.44800      1.2390776    
     7.45200      1.2202321    
     7.45600      1.2017538    
     7.46000      1.1836326    
     7.46400      1.1658588    
     7.46800      1.1484233    
     7.47200      1.1313180    
     7.47600      1.1145354    
     7.48000      1.0980693    
     7.48400      1.0819140    
     7.48800      1.0660649    
     7.49200      1.0505174    
     7.49600      1.0352672    
     7.50000      1.0203100    
     7.50400      1.0056415    
     7.50800     0.99125724    
     7.51200     0.97715290    
     7.51600     0.96332401    
     7.52000     0.94976594    
     7.52400     0.93647373    
     7.52800     0.92344210    
     7.53200     0.91066543    
     7.53600     0.89813787    
     7.54000     0.88585349    
     7.54400     0.87380639    
     7.54800     0.86199070    
     7.55200     0.85040065    
     7.55600     0.83903056    
     7.56000     0.82787487    
     7.56400     0.81692819    
     7.56800     0.80618546    
     7.57200     0.79564193    
     7.57600     0.78529325    
     7.58000     0.77513539    
     7.58400     0.76516457    
     7.58800     0.75537712    
     7.59200     0.74576949    
     7.59600     0.73633814    
     7.60000     0.72707960    
     7.60400     0.71799045    
     7.60800     0.70906735    
     7.61200     0.70030695    
     7.61600     0.69170589    
     7.62000     0.68326075    
     7.62400     0.67496800    
     7.62800     0.66682409    
     7.63200     0.65882545    
     7.63600     0.65096856    
     7.64000     0.64324997    
     7.64400     0.63566629    
     7.64800     0.62821425    
     7.65200     0.62089064    
     7.65600     0.61369235    
     7.66000     0.60661641    
     7.66400     0.59966003    
     7.66800     0.59282059    
     7.67200     0.58609566    
     7.67600     0.57948296    
     7.68000     0.57298031    
     7.68400     0.56658562    
     7.68800     0.56029687    
     7.69200     0.55411206    
     7.69600     0.54802926    
     7.70000     0.54204655    
     7.70400     0.53616207    
     7.70800     0.53037396    
     7.71200     0.52468033    
     7.71600     0.51907928    
     7.72000     0.51356891    
     7.72400     0.50814726    
     7.72800     0.50281240    
     7.73200     0.49756241    
     7.73600     0.49239541    
     7.74000     0.48730953    
     7.74400     0.48230293    
     7.74800     0.47737381    
     7.75200     0.47252040    
     7.75600     0.46774099    
     7.76000     0.46303395    
     7.76400     0.45839771    
     7.76800     0.45383077    
     7.77200     0.44933170    
     7.77600     0.44489910    
     7.78000     0.44053165    
     7.78400     0.43622800    
     7.78800     0.43198689    
     7.79200     0.42780706    
     7.79600     0.42368728    
     7.80000     0.41962637    
     7.80400     0.41562313    
     7.80800     0.41167639    
     7.81200     0.40778500    
     7.81600     0.40394778    
     7.82000     0.40016360    
     7.82400     0.39643132    
     7.82800     0.39274983    
     7.83200     0.38911805    
     7.83600     0.38553492    
     7.84000     0.38199941    
     7.84400     0.37851048    
     7.84800     0.37506717    
     7.85200     0.37166852    
     7.85600     0.36831361    
     7.86000     0.36500157    
     7.86400     0.36173155    
     7.86800     0.35850275    
     7.87200     0.35531437    
     7.87600     0.35216566    
     7.88000     0.34905586    
     7.88400     0.34598424    
     7.88800     0.34295011    
     7.89200     0.33995277    
     7.89600     0.33699153    
     7.90000     0.33406573    
     7.90400     0.33117471    
     7.90800     0.32831781    
     7.91200     0.32549438    
     7.91600     0.32270378    
     7.92000     0.31994537    
     7.92400     0.31721853    
     7.92800     0.31452266    
     7.93200     0.31185714    
     7.93600     0.30922140    
     7.94000     0.30661485    
     7.94400     0.30403692    
     7.94800     0.30148708    
     7.95200     0.29896478    
     7.95600     0.29646952    
     7.96000     0.29400078    
     7.96400     0.29155808    
     7.96800     0.28914094    
     7.97200     0.28674891    
     7.97600     0.28438153    
     7.98000     0.28203835    
     7.98400     0.27971894    
     7.98800     0.27742290    
     7.99200     0.27514979    
     7.99600     0.27289921    
     8.00000     0.27067077    
     8.00400     0.26846407    
     8.00800     0.26627873    
     8.01200     0.26411435    
     8.01600     0.26197058    
     8.02000     0.25984705    
     8.02400     0.25774339    
     8.02800     0.25565926    
     8.03200     0.25359431    
     8.03600     0.25154821    
     8.04000     0.24952062    
     8.04400     0.24751124    
     8.04800     0.24551975    
     8.05200     0.24354584    
     8.05600     0.24158923    
     8.06000     0.23964962    
     8.06400     0.23772674    
     8.06800     0.23582032    
     8.07200     0.23393007    
     8.07600     0.23205575    
     8.08000     0.23019710    
     8.08400     0.22835386    
     8.08800     0.22652580    
     8.09200     0.22471266    
     8.09600     0.22291421    
     8.10000     0.22113022    
     8.10400     0.21936046    
     8.10800     0.21760469    
     8.11200     0.21586270    
     8.11600     0.21413428    
     8.12000     0.21241919    
     8.12400     0.21071724    
     8.12800     0.20902821    
     8.13200     0.20735191    
     8.13600     0.20568813    
     8.14000     0.20403668    
     8.14400     0.20239736    
     8.14800     0.20077000    
     8.15200     0.19915441    
     8.15600     0.19755041    
     8.16000     0.19595783    
     8.16400     0.19437649    
     8.16800     0.19280622    
     8.17200     0.19124687    
     8.17600     0.18969827    
     8.18000     0.18816025    
     8.18400     0.18663268    
     8.18800     0.18511538    
     8.19200     0.18360822    
     8.19600     0.18211103    
     8.20000     0.18062369    
     8.20400     0.17914604    
     8.20800     0.17767794    
     8.21200     0.17621926    
     8.21600     0.17476986    
     8.22000     0.17332960    
     8.22400     0.17189836    
     8.22800     0.17047601    
     8.23200     0.16906241    
     8.23600     0.16765745    
     8.24000     0.16626100    
     8.24400     0.16487295    
     8.24800     0.16349317    
     8.25200     0.16212156    
     8.25600     0.16075799    
     8.26000     0.15940236    
     8.26400     0.15805456    
     8.26800     0.15671448    
     8.27200     0.15538201    
     8.27600     0.15405706    
     8.28000     0.15273951    
     8.28400     0.15142927    
     8.28800     0.15012624    
     8.29200     0.14883033    
     8.29600     0.14754142    
     8.30000     0.14625944    
     8.30400     0.14498428    
     8.30800     0.14371586    
     8.31200     0.14245408    
     8.31600     0.14119886    
     8.32000     0.13995010    
     8.32400     0.13870772    
     8.32800     0.13747163    
     8.33200     0.13624175    
     8.33600     0.13501800    
     8.34000     0.13380030    
     8.34400     0.13258856    
     8.34800     0.13138270    
     8.35200     0.13018265    
     8.35600     0.12898833    
     8.36000     0.12779967    
     8.36400     0.12661658    
     8.36800     0.12543901    
     8.37200     0.12426686    
     8.37600     0.12310007    
     8.38000     0.12193858    
     8.38400     0.12078231    
     8.38800     0.11963119    
     8.39200     0.11848515    
     8.39600     0.11734413    
     8.40000     0.11620805    
     8.40400     0.11507687    
     8.40800     0.11395050    
     8.41200     0.11282889    
     8.41600     0.11171197    
     8.42000     0.11059968    
     8.42400     0.10949197    
     8.42800     0.10838876    
     8.43200     0.10729000    
     8.43600     0.10619562    
     8.44000     0.10510558    
     8.44400     0.10401982    
     8.44800     0.10293826    
     8.45200     0.10186087    
     8.45600     0.10078758    
     8.46000     0.99718345E-01
     8.46400     0.98653100E-01
     8.46800     0.97591795E-01
     8.47200     0.96534377E-01
     8.47600     0.95480793E-01
     8.48000     0.94430991E-01
     8.48400     0.93384920E-01
     8.48800     0.92342528E-01
     8.49200     0.91303765E-01
     8.49600     0.90268580E-01
     8.50000     0.89236925E-01
     8.50400     0.88208750E-01
     8.50800     0.87184006E-01
     8.51200     0.86162647E-01
     8.51600     0.85144623E-01
     8.52000     0.84129888E-01
     8.52400     0.83118395E-01
     8.52800     0.82110099E-01
     8.53200     0.81104952E-01
     8.53600     0.80102911E-01
     8.54000     0.79103930E-01
     8.54400     0.78107964E-01
     8.54800     0.77114970E-01
     8.55200     0.76124904E-01
     8.55600     0.75137722E-01
     8.56000     0.74153382E-01
     8.56400     0.73171841E-01
     8.56800     0.72193057E-01
     8.57200     0.71216988E-01
     8.57600     0.70243592E-01
     8.58000     0.69272830E-01
     8.58400     0.68304659E-01
     8.58800     0.67339039E-01
     8.59200     0.66375930E-01
     8.59600     0.65415293E-01
     8.60000     0.64457087E-01
     8.60400     0.63501274E-01
     8.60800     0.62547815E-01
     8.61200     0.61596671E-01
     8.61600     0.60647803E-01
     8.62000     0.59701174E-01
     8.62400     0.58756746E-01
     8.62800     0.57814481E-01
     8.63200     0.56874343E-01
     8.63600     0.55936293E-01
     8.64000     0.55000296E-01
     8.64400     0.54066315E-01
     8.64800     0.53134313E-01
     8.65200     0.52204255E-01
     8.65600     0.51276104E-01
     8.66000     0.50349826E-01
     8.66400     0.49425385E-01
     8.66800     0.48502745E-01
     8.67200     0.47581873E-01
     8.67600     0.46662732E-01
     8.68000     0.45745289E-01
     8.68400     0.44829510E-01
     8.68800     0.43915359E-01
     8.69200     0.43002804E-01
     8.69600     0.42091810E-01
     8.70000     0.41182344E-01
     8.70400     0.40274373E-01
     8.70800     0.39367863E-01
     8.71200     0.38462781E-01
     8.71600     0.37559094E-01
     8.72000     0.36656770E-01
     8.72400     0.35755776E-01
     8.72800     0.34856079E-01
     8.73200     0.33957648E-01
     8.73600     0.33060449E-01
     8.74000     0.32164452E-01
     8.74400     0.31269624E-01
     8.74800     0.30375933E-01
     8.75200     0.29483348E-01
     8.75600     0.28591838E-01
     8.76000     0.27701370E-01
     8.76400     0.26811914E-01
     8.76800     0.25923439E-01
     8.77200     0.25035914E-01
     8.77600     0.24149307E-01
     8.78000     0.23263588E-01
     8.78400     0.22378726E-01
     8.78800     0.21494691E-01
     8.79200     0.20611451E-01
     8.79600     0.19728978E-01
     8.80000     0.18847239E-01
     8.80400     0.17966206E-01
     8.80800     0.17085847E-01
     8.81200     0.16206133E-01
     8.81600     0.15327034E-01
     8.82000     0.14448520E-01
     8.82400     0.13570560E-01
     8.82800     0.12693126E-01
     8.83200     0.11816187E-01
     8.83600     0.10939714E-01
     8.84000     0.10063677E-01
     8.84400     0.91880461E-02
     8.84800     0.83127924E-02
     8.85200     0.74378862E-02
     8.85600     0.65632980E-02
     8.86000     0.56889986E-02
     8.86400     0.48149585E-02
     8.86800     0.39411485E-02
     8.87200     0.30675393E-02
     8.87600     0.21941016E-02
     8.88000     0.13208063E-02
     8.88400     0.44762414E-03
     8.88800    -0.42547398E-03
     8.89200    -0.12985172E-02
     8.89600    -0.21715347E-02
     8.90000    -0.30445555E-02
     8.90400    -0.39176087E-02
     8.90800    -0.47907234E-02
     8.91200    -0.56639287E-02
     8.91600    -0.65372536E-02
     8.92000    -0.74107271E-02
     8.92400    -0.82843785E-02
     8.92800    -0.91582366E-02
     8.93200    -0.10032331E-01
     8.93600    -0.10906690E-01
     8.94000    -0.11781343E-01
     8.94400    -0.12656319E-01
     8.94800    -0.13531647E-01
     8.95200    -0.14407357E-01
     8.95600    -0.15283478E-01
     8.96000    -0.16160038E-01
     8.96400    -0.17037067E-01
     8.96800    -0.17914595E-01
     8.97200    -0.18792650E-01
     8.97600    -0.19671262E-01
     8.98000    -0.20550460E-01
     8.98400    -0.21430273E-01
     8.98800    -0.22310732E-01
     8.99200    -0.23191864E-01
     8.99600    -0.24073701E-01
     9.00000    -0.24956272E-01
