  -171.924243689677       3.005051304804769E-191 -2.958554427962887E-191
  -171.133787396851      -6.740347677485367E-163  6.338324054886652E-164
  -170.343331104025       5.094778093679323E-161  3.675295244337623E-161
  -169.552874811199      -5.647344360884865E-160 -3.060101984507729E-159
  -168.762418518373      -6.917634495481505E-158  9.438460105306083E-158
  -167.971962225547       3.758522261568654E-156 -2.562880099917522E-157
  -167.181505932720      -7.222854978720231E-155 -8.349203999982672E-155
  -166.391049639894      -8.010173512519288E-154  2.954772544619911E-153
  -165.600593347068       7.928820054061007E-152 -2.299560035933807E-152
  -164.810137054242      -1.572630131703184E-150 -1.550406236757792E-150
  -164.019680761416      -1.720303477886988E-149  5.689629896613648E-149
  -163.229224468590       1.599161366896412E-147 -2.878864845983945E-148
  -162.438768175764      -2.744289487460205E-146 -3.608135042003967E-146
  -161.648311882938      -5.441194675254815E-145  1.171525321058745E-144
  -160.857855590112       3.737075582951863E-143 -2.881378890154997E-144
  -160.067399297286      -6.444573039718183E-142 -8.921858299640346E-142
  -159.276943004459      -1.114731248090972E-140  3.043202128752146E-140
  -158.486486711633       9.057037172552992E-139 -2.746496107921918E-139
  -157.696030418807      -2.269027306578266E-137 -1.475461352383223E-137
  -156.905574125981       1.316708635303907E-136  7.363749222514003E-136
  -156.115117833155       1.098522409784668E-134 -1.638319764931346E-134
  -155.324661540329      -4.745582075870839E-133  1.236670172766625E-133
  -154.534205247503       1.030766558481379E-131  4.829231521208356E-132
  -153.743748954677      -1.085183367377084E-130 -2.195341847728439E-130
  -152.953292661851      -1.010697892940112E-129  4.757719635661510E-129
  -152.162836369024       6.914464819109444E-128 -5.626736772716814E-128
  -151.372380076198      -1.512381697909637E-126 -3.079895844222856E-128
  -150.581923783372       1.729691140955741E-125  1.653449033210709E-125
  -149.791467490546      -5.068934072576782E-126 -3.563985250000326E-124
  -149.001011197720      -3.771601223859767E-123  3.379269157912894E-123
  -148.210554904894       6.837728939618309E-122  1.321365384111347E-122
  -147.420098612068      -3.568887736001374E-121 -8.717072353790197E-121
  -146.629642319242      -7.923890901123042E-120  9.968921893512365E-120
  -145.839186026416       1.703884377937866E-118  3.904532579255054E-119
  -145.048729733590      -4.055902592701095E-118 -2.437875279062777E-117
  -144.258273440763      -3.179397687908724E-116  1.777980567321102E-116
  -143.467817147937       4.145116909468647E-115  3.840967089126026E-115
  -142.677360855111       4.036115079340860E-114 -8.361085563137821E-114
  -141.886904562285      -1.601114613611403E-112 -2.444536553151547E-113
  -141.096448269459       4.900209630034845E-112  2.956631638806555E-111
  -140.305991976633       5.097280179467081E-110 -2.877110488945331E-110
  -139.515535683807      -9.462732767322950E-109 -7.321304352274501E-109
  -138.725079390981      -4.988275266927204E-108  2.480204241943699E-107
  -137.934623098155       5.155541068440521E-106 -1.783291432141961E-106
  -137.144166805329      -9.548583471510892E-105 -6.937987912653330E-105
  -136.353710512502       1.552368835950104E-104  2.513578951283913E-103
  -135.563254219676       3.510070118954076E-102 -3.846278648369186E-102
  -134.772797926850      -1.020496545520129E-100  1.064041403545201E-101
  -133.982341634024       1.610023377401643E-099  1.004379137699036E-099
  -133.191885341198      -1.281788372075969E-098 -2.988956715243660E-098
  -132.401429048372      -8.316625877826035E-098  5.046183113716506E-097
  -131.610972755546       4.769953621724266E-096 -5.568125694304454E-096
  -130.820516462720      -9.058520743069206E-095  3.042067502235342E-095
  -130.030060169894       1.104712526122159E-093  2.527743666867060E-094
  -129.239603877068      -8.554200153323430E-093 -8.818927768758879E-093
  -128.449147584241       1.869368451051459E-092  1.213018264508489E-091
  -127.658691291415       5.660619619615656E-091 -9.919932432874363E-091
  -126.868234998589      -9.534378974210819E-090  3.124993074227940E-090
  -126.077778705763       7.454506913384265E-089  3.971853987109504E-089
  -125.287322412937      -1.382575370758700E-088 -6.784596343403776E-088
  -124.496866120111      -3.839710236015215E-087  4.099429818209208E-087
  -123.706409827285       4.483262499385389E-086  9.329436030824339E-087
  -122.915953534459      -1.051815898971028E-085 -3.656950268653071E-085
  -122.125497241633      -2.466709485384945E-084  2.133358262597885E-084
  -121.335040948807       2.600906120330924E-083  1.303805202617917E-083
  -120.544584655980       2.652538027460500E-083 -2.705067671134234E-082
  -119.754128363154      -2.578423459056029E-081  6.793049399361003E-082
  -118.963672070328       1.585711656412747E-080  2.240701000955577E-080
  -118.173215777502       1.619257192161921E-079 -2.471219056721876E-079
  -117.382759484676      -3.251355303456787E-078 -5.792645929903387E-079
  -116.592303191850       1.000879803833890E-077  3.665499734314635E-077
  -115.801846899024       3.237333099892823E-076 -3.054778455234668E-076
  -115.011390606198      -5.051471639855904E-075 -1.411347349185707E-075
  -114.220934313372       1.953746465444869E-074  5.818886578534305E-074
  -113.430478020546       3.957659061759803E-073 -5.826713604782393E-073
  -112.640021727719      -7.787135205853799E-072  8.129430661373965E-073
  -111.849565434893       6.258904312038830E-071  5.507876408554314E-071
  -111.059109142067      -5.019627937236207E-071 -8.410869304582362E-070
  -110.268652849241      -5.193146387240004E-069  6.116168346460482E-069
  -109.478196556415       7.116022623174646E-068 -8.411262225583432E-069
  -108.687740263589      -4.842510520506068E-067 -3.526661242441186E-067
  -107.897283970763       8.582939219530283E-067  4.614276379248252E-066
  -107.106827677937       1.941064986760311E-065 -2.863761174457525E-065
  -106.316371385111      -2.383222075511300E-064  3.916445670253785E-065
  -105.525915092285       1.241830879099685E-063  1.026376856864164E-063
  -104.735458799458       2.191367049562152E-064 -1.037632200417563E-062
  -103.945002506632      -5.402434437054326E-062  3.673469637718737E-062
  -103.154546213806       3.734485355213552E-061  1.612219669212504E-061
  -102.364089920980      -2.740750302245140E-061 -2.520432037941951E-060
  -101.573633628154      -1.339415146821770E-059  8.745906710489552E-060
  -100.783177335328       8.736656898467588E-059  5.490588067772265E-059
  -99.9927210425018       1.092521744316162E-058 -6.772432767060981E-058
  -99.2022647496757      -4.613252691383433E-057  1.037976150115179E-057
  -98.4118084568496       1.898240330552081E-056  2.811111735289380E-056
  -97.6213521640235       1.433945197646767E-055 -2.090988944734644E-055
  -96.8308958711974      -1.928936568242159E-054 -4.119828800739068E-055
  -96.0404395783713       3.263907269260744E-054  1.557418876673338E-053
  -95.2499832855452       1.045195547011874E-052 -8.117246369670142E-053
  -94.4595269927191      -1.031822761930314E-051 -4.496116228722472E-052
  -93.6690706998930       1.368367355213980E-051  9.596694155397790E-051
  -92.8786144070669       6.104132016454684E-050 -5.712839604950643E-050
  -92.0881581142408      -7.056533711404151E-049 -1.045823171909060E-049
  -91.2977018214147       3.283655954587765E-048  4.958718938314643E-048
  -90.5072455285886       9.314349022003960E-048 -4.694522333555672E-047
  -89.7167892357625      -2.932879809081635E-046  2.215362389756187E-046
  -88.9263329429364       2.665299172777915E-045  9.564955460198623E-047
  -88.1358766501103      -1.406939873850311E-044 -1.144501121913573E-044
  -87.3454203572842       3.017438205915440E-044  1.108739085574841E-043
  -86.5549640644581       2.276142233692946E-043 -6.364379758827296E-043
  -85.7645077716320      -3.004001811773792E-042  2.139815461140321E-042
  -84.9740514788059       1.869991253194025E-041  1.261866491678022E-044
  -84.1835951859798      -7.080302053329390E-041 -5.303091763151241E-041
  -83.3931388931537       9.837375442173461E-041  3.803991260928067E-040
  -82.6026826003276       7.379793868804885E-040 -1.478168162677734E-039
  -81.8122263075015      -6.252561646895719E-039  2.238622778988637E-039
  -81.0217700146754       2.297498999595498E-038  1.173732764267286E-038
  -80.2313137218493      -2.216584583391796E-038 -9.543567331449691E-038
  -79.4408574290232      -2.358278339645370E-037  2.824464152894419E-037
  -78.6504011361971       1.375036604488350E-036  1.371936427082547E-037
  -77.8599448433710      -2.287127519814240E-036 -4.717309059239670E-036
  -77.0694885505449      -1.155173565769026E-035  1.665270246206544E-035
  -76.2790322577188       7.978223373045626E-035  9.829979524753326E-036
  -75.4885759648927      -1.103744363871305E-034 -3.095323879579768E-034
  -74.6981196720666      -9.670221249014169E-034  9.952946059441430E-034
  -73.9076633792405       5.761881763955901E-033  1.848961587341499E-033
  -73.1172070864144      -4.430451736744390E-033 -2.680952498389498E-032
  -72.3267507935883      -9.864780000769885E-032  7.680499523848365E-032
  -71.5362945007622       5.435169427189803E-031  2.169516463885776E-031
  -70.7458382079361      -5.158112292500499E-031 -2.714251154511999E-030
  -69.9553819151100      -9.095685210481232E-030  9.323440818378549E-030
  -69.1649256222839       6.024483640557234E-029  7.189778115956042E-030
  -68.3744693294578      -1.511850532560922E-028 -2.311682435831648E-028
  -67.5840130366317      -3.044324258309285E-028  1.177468727537606E-027
  -66.7935567438056       4.449502501288271E-027 -2.552084707629371E-027
  -66.0031004509795      -1.992214903401951E-026 -5.060918670385499E-027
  -65.2126441581534       4.200324436470239E-026  6.545703448482735E-026
  -64.4221878653272       4.787294076893021E-026 -2.726287675903193E-025
  -63.6317315725012      -7.378158627499975E-025  5.587819037797764E-025
  -62.8412752796751       2.892471978155765E-024  3.393379582505759E-025
  -62.0508189868490      -5.322912030899317E-024 -6.834476175924594E-024
  -61.2603626940229      -4.098458090567414E-024  2.418802375718971E-023
  -60.4699064011968       5.767363195743925E-023 -3.364976521357421E-023
  -59.6794501083707      -1.628597074529879E-022 -6.837015585360603E-023
  -58.8889938155445       8.863585036201334E-023  4.510938859727236E-022
  -58.0985375227184       8.870339679977762E-022 -7.969392689714879E-022
  -57.3080812298923      -2.930687339138133E-021 -1.074319386960205E-021
  -56.5176249370662       7.633313861731588E-022  8.306739505486923E-021
  -55.7271686442401       2.019002783071372E-020 -1.099536976636019E-020
  -54.9367123514140      -5.078548008601842E-020 -4.194230289064192E-020
  -54.1462560585879      -6.230990754480400E-020  1.871467666205478E-019
  -53.3557997657618       6.183532521579948E-019 -2.977760289475931E-020
  -52.5653434729357      -8.526573976831453E-019 -1.848350171316726E-018
  -51.7748871801096      -4.639266277042965E-018  5.224772089519724E-018
  -50.9844308872835       2.395719214441515E-017  6.690686474974846E-018
  -50.1939745944574      -2.110289565915336E-017 -8.848432649218998E-017
  -49.4035183016313      -2.346584264387946E-016  2.427940043471730E-016
  -48.6130620088052       1.243493211561873E-015  1.648602870042862E-016
  -47.8226057159791      -2.501475019505562E-015 -3.850958271512434E-015
  -47.0321494231530      -3.493997317691808E-015  1.592350638166867E-014
  -46.2416931303269       4.465980556207554E-014 -3.251716610240259E-014
  -45.4512368375008      -1.759720512988298E-013 -6.571451448586066E-015
  -44.6607805446747       4.130498200278421E-013  3.181585444944916E-013
  -43.8703242518486      -4.589700012491379E-013 -1.343537801568864E-012
  -43.0798679590225      -8.338293252939205E-013  3.433052111681178E-012
  -42.2894116661964       5.775127181773479E-012 -5.552562110549249E-012
  -41.4989553733703      -1.630336268118891E-011  3.004546894280957E-012
  -40.7084990805442       2.854023259989308E-011  1.325350699211536E-011
  -39.9180427877181      -2.505497573575202E-011 -4.927878880511147E-011
  -39.1275864948920      -2.311338410244434E-011  8.800675061206521E-011
  -38.3371302020659       1.239069499367580E-010 -7.019467060548018E-011
  -37.5466739092398      -2.016383371506806E-010 -7.605239963063593E-011
  -36.7562176164137       8.068977128887349E-011  3.106668391945266E-010
  -35.9657613235876       3.369065838201347E-010 -3.405295084650283E-010
  -35.1753050307615      -6.926821513294869E-010 -2.263293913345957E-010
  -34.3848487379354       9.811364534263910E-011  1.143379400392467E-009
  -33.5943924451093       1.716989684931903E-009 -8.021721990781547E-010
  -32.8039361522832      -2.268906598172648E-009 -2.415290943128237E-009
  -32.0134798594571      -3.047499846621800E-009  5.366769928637629E-009
  -31.2230235666310       1.198074894400659E-008  2.612708355000024E-009
  -30.4325672738049      -2.766548085600453E-009 -2.577475296029712E-008
  -29.6421109809788      -5.173769278008637E-008  2.600790776969817E-008
  -28.8516546881527       1.039715129638244E-007  8.644724706268053E-008
  -28.0611983953266       7.018345107879316E-008 -3.177569367555958E-007
  -27.2707421025005      -7.503428508175998E-007  2.590907531932428E-007
  -26.4802858096744       1.579278617308918E-006  1.104345214129605E-006
  -25.6898295168483      -4.389516090309806E-007 -4.546987140903645E-006
  -24.8993732240222      -6.638350753103973E-006  7.977939322144702E-006
  -24.1089169311961       2.195835504269416E-005 -3.363649053627850E-006
  -23.3184606383700      -3.830565769743918E-005 -2.192599857036130E-005
  -22.5280043455439       3.252800355672947E-005  7.360108879201240E-005
  -21.7375480527178       2.652288098863045E-005 -1.309473147499420E-004
  -20.9470917598917      -1.468242411695096E-004  1.378749049120060E-004
  -20.1566354670656       2.743184394305485E-004 -3.190545658181322E-005
  -19.3661791742395      -2.931854387593860E-004 -1.850684475307480E-004
  -18.5757228814134       1.077516015499377E-004  3.883679519344720E-004
  -17.7852665885873       2.261993294706657E-004 -3.780068415148829E-004
  -16.9948102957612      -4.568020856380982E-004  6.355851679487030E-005
  -16.2043540029351       3.136618652971721E-004  3.530692783998158E-004
  -15.4138977101090       1.642206749558540E-004 -4.547561353347422E-004
  -14.6234414172829      -5.046804667665100E-004  3.312851864188776E-005
  -13.8329851244568       2.155209155057292E-004  5.078293938332388E-004
  -13.0425288316307       4.986063626516168E-004 -3.991044183042572E-004
  -12.2520725388046      -6.256484711336747E-004 -4.919250270818861E-004
  -11.4616162459785      -4.786548495665950E-004  9.658763106470330E-004
  -10.6711599531524       1.543127981985837E-003  4.012565593529544E-004
  -9.88070366032627       6.636391695897362E-005 -2.573326138535053E-003
  -9.09024736750017      -4.371606366596254E-003  1.110117544172680E-003
  -8.29979107467407       4.723097493773309E-003  7.049069545173415E-003
  -7.50933478184796       8.864895149366777E-003 -1.436272012639425E-002
  -6.71887848902186      -3.481204547762589E-002 -8.570482004260378E-004
  -5.92842219619576       4.205930276559862E-002  5.950916873355300E-002
  -5.13796590336966       2.978147669768682E-002 -0.147976221662107     
  -4.34750961054356      -0.235458846357180       0.188652860741421     
  -3.55705331771746       0.565224027752508      -5.120743547550303E-002
  -2.76659702489135      -0.905981095810413      -0.376986240534900     
  -1.97614073206525        1.07000290420150        1.09021667897917     
  -1.18568443923915      -0.895291721799591       -1.90571407928107     
 -0.395228146413051       0.359227202750396        2.51419721242404     
  0.395228146413051       0.359227202750396       -2.51419721242404     
   1.18568443923915      -0.895291721799591        1.90571407928107     
   1.97614073206525        1.07000290420150       -1.09021667897917     
   2.76659702489135      -0.905981095810413       0.376986240534900     
   3.55705331771746       0.565224027752508       5.120743547550303E-002
   4.34750961054356      -0.235458846357180      -0.188652860741421     
   5.13796590336966       2.978147669768682E-002  0.147976221662107     
   5.92842219619576       4.205930276559862E-002 -5.950916873355300E-002
   6.71887848902186      -3.481204547762589E-002  8.570482004260378E-004
   7.50933478184796       8.864895149366777E-003  1.436272012639425E-002
   8.29979107467407       4.723097493773309E-003 -7.049069545173415E-003
   9.09024736750017      -4.371606366596254E-003 -1.110117544172680E-003
   9.88070366032627       6.636391695897362E-005  2.573326138535053E-003
   10.6711599531524       1.543127981985837E-003 -4.012565593529544E-004
   11.4616162459785      -4.786548495665950E-004 -9.658763106470330E-004
   12.2520725388046      -6.256484711336747E-004  4.919250270818861E-004
   13.0425288316307       4.986063626516168E-004  3.991044183042572E-004
   13.8329851244568       2.155209155057292E-004 -5.078293938332388E-004
   14.6234414172829      -5.046804667665100E-004 -3.312851864188776E-005
   15.4138977101090       1.642206749558540E-004  4.547561353347422E-004
   16.2043540029351       3.136618652971721E-004 -3.530692783998158E-004
   16.9948102957612      -4.568020856380982E-004 -6.355851679487030E-005
   17.7852665885873       2.261993294706657E-004  3.780068415148829E-004
   18.5757228814134       1.077516015499377E-004 -3.883679519344720E-004
   19.3661791742395      -2.931854387593860E-004  1.850684475307480E-004
   20.1566354670656       2.743184394305485E-004  3.190545658181322E-005
   20.9470917598917      -1.468242411695096E-004 -1.378749049120060E-004
   21.7375480527178       2.652288098863045E-005  1.309473147499420E-004
   22.5280043455439       3.252800355672947E-005 -7.360108879201240E-005
   23.3184606383700      -3.830565769743918E-005  2.192599857036130E-005
   24.1089169311961       2.195835504269416E-005  3.363649053627850E-006
   24.8993732240222      -6.638350753103973E-006 -7.977939322144702E-006
   25.6898295168483      -4.389516090309806E-007  4.546987140903645E-006
   26.4802858096744       1.579278617308918E-006 -1.104345214129605E-006
   27.2707421025005      -7.503428508175998E-007 -2.590907531932428E-007
   28.0611983953266       7.018345107879316E-008  3.177569367555958E-007
   28.8516546881527       1.039715129638244E-007 -8.644724706268053E-008
   29.6421109809788      -5.173769278008637E-008 -2.600790776969817E-008
   30.4325672738049      -2.766548085600453E-009  2.577475296029712E-008
   31.2230235666310       1.198074894400659E-008 -2.612708355000024E-009
   32.0134798594571      -3.047499846621800E-009 -5.366769928637629E-009
   32.8039361522832      -2.268906598172648E-009  2.415290943128237E-009
   33.5943924451093       1.716989684931903E-009  8.021721990781547E-010
   34.3848487379354       9.811364534263910E-011 -1.143379400392467E-009
   35.1753050307615      -6.926821513294869E-010  2.263293913345957E-010
   35.9657613235876       3.369065838201347E-010  3.405295084650283E-010
   36.7562176164137       8.068977128887349E-011 -3.106668391945266E-010
   37.5466739092398      -2.016383371506806E-010  7.605239963063593E-011
   38.3371302020659       1.239069499367580E-010  7.019467060548018E-011
   39.1275864948920      -2.311338410244434E-011 -8.800675061206521E-011
   39.9180427877181      -2.505497573575202E-011  4.927878880511147E-011
   40.7084990805442       2.854023259989308E-011 -1.325350699211536E-011
   41.4989553733703      -1.630336268118891E-011 -3.004546894280957E-012
   42.2894116661964       5.775127181773479E-012  5.552562110549249E-012
   43.0798679590225      -8.338293252939205E-013 -3.433052111681178E-012
   43.8703242518486      -4.589700012491379E-013  1.343537801568864E-012
   44.6607805446747       4.130498200278421E-013 -3.181585444944916E-013
   45.4512368375008      -1.759720512988298E-013  6.571451448586066E-015
   46.2416931303269       4.465980556207554E-014  3.251716610240259E-014
   47.0321494231530      -3.493997317691808E-015 -1.592350638166867E-014
   47.8226057159791      -2.501475019505562E-015  3.850958271512434E-015
   48.6130620088052       1.243493211561873E-015 -1.648602870042862E-016
   49.4035183016313      -2.346584264387946E-016 -2.427940043471730E-016
   50.1939745944574      -2.110289565915336E-017  8.848432649218998E-017
   50.9844308872835       2.395719214441515E-017 -6.690686474974846E-018
   51.7748871801096      -4.639266277042965E-018 -5.224772089519724E-018
   52.5653434729357      -8.526573976831453E-019  1.848350171316726E-018
   53.3557997657618       6.183532521579948E-019  2.977760289475931E-020
   54.1462560585879      -6.230990754480400E-020 -1.871467666205478E-019
   54.9367123514140      -5.078548008601842E-020  4.194230289064192E-020
   55.7271686442401       2.019002783071372E-020  1.099536976636019E-020
   56.5176249370662       7.633313861731588E-022 -8.306739505486923E-021
   57.3080812298923      -2.930687339138133E-021  1.074319386960205E-021
   58.0985375227184       8.870339679977762E-022  7.969392689714879E-022
   58.8889938155446       8.863585036201334E-023 -4.510938859727236E-022
   59.6794501083707      -1.628597074529879E-022  6.837015585360603E-023
   60.4699064011968       5.767363195743925E-023  3.364976521357421E-023
   61.2603626940229      -4.098458090567414E-024 -2.418802375718971E-023
   62.0508189868490      -5.322912030899317E-024  6.834476175924594E-024
   62.8412752796751       2.892471978155765E-024 -3.393379582505759E-025
   63.6317315725012      -7.378158627499975E-025 -5.587819037797764E-025
   64.4221878653273       4.787294076893021E-026  2.726287675903193E-025
   65.2126441581534       4.200324436470239E-026 -6.545703448482735E-026
   66.0031004509795      -1.992214903401951E-026  5.060918670385499E-027
   66.7935567438056       4.449502501288271E-027  2.552084707629371E-027
   67.5840130366317      -3.044324258309285E-028 -1.177468727537606E-027
   68.3744693294578      -1.511850532560922E-028  2.311682435831648E-028
   69.1649256222839       6.024483640557234E-029 -7.189778115956042E-030
   69.9553819151100      -9.095685210481232E-030 -9.323440818378549E-030
   70.7458382079361      -5.158112292500499E-031  2.714251154511999E-030
   71.5362945007622       5.435169427189803E-031 -2.169516463885776E-031
   72.3267507935883      -9.864780000769885E-032 -7.680499523848365E-032
   73.1172070864144      -4.430451736744390E-033  2.680952498389498E-032
   73.9076633792405       5.761881763955901E-033 -1.848961587341499E-033
   74.6981196720666      -9.670221249014169E-034 -9.952946059441430E-034
   75.4885759648927      -1.103744363871305E-034  3.095323879579768E-034
   76.2790322577188       7.978223373045626E-035 -9.829979524753326E-036
   77.0694885505449      -1.155173565769026E-035 -1.665270246206544E-035
   77.8599448433710      -2.287127519814240E-036  4.717309059239670E-036
   78.6504011361971       1.375036604488350E-036 -1.371936427082547E-037
   79.4408574290232      -2.358278339645370E-037 -2.824464152894419E-037
   80.2313137218493      -2.216584583391796E-038  9.543567331449691E-038
   81.0217700146754       2.297498999595498E-038 -1.173732764267286E-038
   81.8122263075015      -6.252561646895719E-039 -2.238622778988637E-039
   82.6026826003276       7.379793868804885E-040  1.478168162677734E-039
   83.3931388931537       9.837375442173461E-041 -3.803991260928067E-040
   84.1835951859798      -7.080302053329390E-041  5.303091763151241E-041
   84.9740514788059       1.869991253194025E-041 -1.261866491678022E-044
   85.7645077716320      -3.004001811773792E-042 -2.139815461140321E-042
   86.5549640644581       2.276142233692946E-043  6.364379758827296E-043
   87.3454203572842       3.017438205915440E-044 -1.108739085574841E-043
   88.1358766501103      -1.406939873850311E-044  1.144501121913573E-044
   88.9263329429364       2.665299172777915E-045 -9.564955460198623E-047
   89.7167892357625      -2.932879809081635E-046 -2.215362389756187E-046
   90.5072455285886       9.314349022003960E-048  4.694522333555672E-047
   91.2977018214147       3.283655954587765E-048 -4.958718938314643E-048
   92.0881581142408      -7.056533711404151E-049  1.045823171909060E-049
   92.8786144070669       6.104132016454684E-050  5.712839604950643E-050
   93.6690706998930       1.368367355213980E-051 -9.596694155397790E-051
   94.4595269927191      -1.031822761930314E-051  4.496116228722472E-052
   95.2499832855452       1.045195547011874E-052  8.117246369670142E-053
   96.0404395783713       3.263907269260744E-054 -1.557418876673338E-053
   96.8308958711974      -1.928936568242159E-054  4.119828800739068E-055
   97.6213521640235       1.433945197646767E-055  2.090988944734644E-055
   98.4118084568496       1.898240330552081E-056 -2.811111735289380E-056
   99.2022647496757      -4.613252691383433E-057 -1.037976150115179E-057
   99.9927210425018       1.092521744316162E-058  6.772432767060981E-058
   100.783177335328       8.736656898467588E-059 -5.490588067772265E-059
   101.573633628154      -1.339415146821770E-059 -8.745906710489552E-060
   102.364089920980      -2.740750302245140E-061  2.520432037941951E-060
   103.154546213806       3.734485355213552E-061 -1.612219669212504E-061
   103.945002506632      -5.402434437054326E-062 -3.673469637718737E-062
   104.735458799458       2.191367049562152E-064  1.037632200417563E-062
   105.525915092285       1.241830879099685E-063 -1.026376856864164E-063
   106.316371385111      -2.383222075511300E-064 -3.916445670253785E-065
   107.106827677937       1.941064986760311E-065  2.863761174457525E-065
   107.897283970763       8.582939219530283E-067 -4.614276379248252E-066
   108.687740263589      -4.842510520506068E-067  3.526661242441186E-067
   109.478196556415       7.116022623174646E-068  8.411262225583432E-069
   110.268652849241      -5.193146387240004E-069 -6.116168346460482E-069
   111.059109142067      -5.019627937236207E-071  8.410869304582362E-070
   111.849565434893       6.258904312038830E-071 -5.507876408554314E-071
   112.640021727719      -7.787135205853799E-072 -8.129430661373965E-073
   113.430478020546       3.957659061759803E-073  5.826713604782393E-073
   114.220934313372       1.953746465444869E-074 -5.818886578534305E-074
   115.011390606198      -5.051471639855904E-075  1.411347349185707E-075
   115.801846899024       3.237333099892823E-076  3.054778455234668E-076
   116.592303191850       1.000879803833890E-077 -3.665499734314635E-077
   117.382759484676      -3.251355303456787E-078  5.792645929903387E-079
   118.173215777502       1.619257192161921E-079  2.471219056721876E-079
   118.963672070328       1.585711656412747E-080 -2.240701000955577E-080
   119.754128363154      -2.578423459056029E-081 -6.793049399361003E-082
   120.544584655980       2.652538027460500E-083  2.705067671134234E-082
   121.335040948807       2.600906120330924E-083 -1.303805202617917E-083
   122.125497241633      -2.466709485384945E-084 -2.133358262597885E-084
   122.915953534459      -1.051815898971028E-085  3.656950268653071E-085
   123.706409827285       4.483262499385389E-086 -9.329436030824339E-087
   124.496866120111      -3.839710236015215E-087 -4.099429818209208E-087
   125.287322412937      -1.382575370758700E-088  6.784596343403776E-088
   126.077778705763       7.454506913384265E-089 -3.971853987109504E-089
   126.868234998589      -9.534378974210819E-090 -3.124993074227940E-090
   127.658691291415       5.660619619615656E-091  9.919932432874363E-091
   128.449147584241       1.869368451051459E-092 -1.213018264508489E-091
   129.239603877068      -8.554200153323430E-093  8.818927768758879E-093
   130.030060169894       1.104712526122159E-093 -2.527743666867060E-094
   130.820516462720      -9.058520743069206E-095 -3.042067502235342E-095
   131.610972755546       4.769953621724266E-096  5.568125694304454E-096
   132.401429048372      -8.316625877826035E-098 -5.046183113716506E-097
   133.191885341198      -1.281788372075969E-098  2.988956715243660E-098
   133.982341634024       1.610023377401643E-099 -1.004379137699036E-099
   134.772797926850      -1.020496545520129E-100 -1.064041403545201E-101
   135.563254219676       3.510070118954076E-102  3.846278648369186E-102
   136.353710512502       1.552368835950104E-104 -2.513578951283913E-103
   137.144166805329      -9.548583471510892E-105  6.937987912653330E-105
   137.934623098155       5.155541068440521E-106  1.783291432141961E-106
   138.725079390981      -4.988275266927204E-108 -2.480204241943699E-107
   139.515535683807      -9.462732767322950E-109  7.321304352274501E-109
   140.305991976633       5.097280179467081E-110  2.877110488945331E-110
   141.096448269459       4.900209630034845E-112 -2.956631638806555E-111
   141.886904562285      -1.601114613611403E-112  2.444536553151547E-113
   142.677360855111       4.036115079340860E-114  8.361085563137821E-114
   143.467817147937       4.145116909468647E-115 -3.840967089126026E-115
   144.258273440764      -3.179397687908724E-116 -1.777980567321102E-116
   145.048729733590      -4.055902592701095E-118  2.437875279062777E-117
   145.839186026416       1.703884377937866E-118 -3.904532579255054E-119
   146.629642319242      -7.923890901123042E-120 -9.968921893512365E-120
   147.420098612068      -3.568887736001374E-121  8.717072353790197E-121
   148.210554904894       6.837728939618309E-122 -1.321365384111347E-122
   149.001011197720      -3.771601223859767E-123 -3.379269157912894E-123
   149.791467490546      -5.068934072576782E-126  3.563985250000326E-124
   150.581923783372       1.729691140955741E-125 -1.653449033210709E-125
   151.372380076198      -1.512381697909637E-126  3.079895844222856E-128
   152.162836369024       6.914464819109444E-128  5.626736772716814E-128
   152.953292661851      -1.010697892940112E-129 -4.757719635661510E-129
   153.743748954677      -1.085183367377084E-130  2.195341847728439E-130
   154.534205247503       1.030766558481379E-131 -4.829231521208356E-132
   155.324661540329      -4.745582075870839E-133 -1.236670172766625E-133
   156.115117833155       1.098522409784668E-134  1.638319764931346E-134
   156.905574125981       1.316708635303907E-136 -7.363749222514003E-136
   157.696030418807      -2.269027306578266E-137  1.475461352383223E-137
   158.486486711633       9.057037172552992E-139  2.746496107921918E-139
   159.276943004459      -1.114731248090972E-140 -3.043202128752146E-140
   160.067399297286      -6.444573039718183E-142  8.921858299640346E-142
   160.857855590112       3.737075582951863E-143  2.881378890154997E-144
   161.648311882938      -5.441194675254815E-145 -1.171525321058745E-144
   162.438768175764      -2.744289487460205E-146  3.608135042003967E-146
   163.229224468590       1.599161366896412E-147  2.878864845983945E-148
   164.019680761416      -1.720303477886988E-149 -5.689629896613648E-149
   164.810137054242      -1.572630131703184E-150  1.550406236757792E-150
   165.600593347068       7.928820054061007E-152  2.299560035933807E-152
   166.391049639894      -8.010173512519288E-154 -2.954772544619911E-153
   167.181505932720      -7.222854978720231E-155  8.349203999982672E-155
   167.971962225547       3.758522261568654E-156  2.562880099917522E-157
   168.762418518373      -6.917634495481505E-158 -9.438460105306083E-158
   169.552874811199      -5.647344360884865E-160  3.060101984507729E-159
   170.343331104025       5.094778093679323E-161 -3.675295244337623E-161
   171.133787396851      -6.740347677485367E-163 -6.338324054886652E-164
   171.924243689677       3.005051304804769E-191  2.958554427962887E-191
