  32262.1600     0.78584E-03 
  32294.4222     0.78911E-03 
  32326.6843     0.79239E-03 
  32358.9465     0.79570E-03 
  32391.2086     0.79903E-03 
  32423.4708     0.80238E-03 
  32455.7330     0.80576E-03 
  32487.9951     0.80915E-03 
  32520.2573     0.81257E-03 
  32552.5194     0.81601E-03 
  32584.7816     0.81948E-03 
  32617.0438     0.82296E-03 
  32649.3059     0.82647E-03 
  32681.5681     0.83001E-03 
  32713.8302     0.83356E-03 
  32746.0924     0.83714E-03 
  32778.3546     0.84075E-03 
  32810.6167     0.84437E-03 
  32842.8789     0.84803E-03 
  32875.1410     0.85170E-03 
  32907.4032     0.85540E-03 
  32939.6654     0.85913E-03 
  32971.9275     0.86288E-03 
  33004.1897     0.86665E-03 
  33036.4518     0.87045E-03 
  33068.7140     0.87428E-03 
  33100.9762     0.87813E-03 
  33133.2383     0.88200E-03 
  33165.5005     0.88591E-03 
  33197.7626     0.88984E-03 
  33230.0248     0.89379E-03 
  33262.2870     0.89777E-03 
  33294.5491     0.90178E-03 
  33326.8113     0.90582E-03 
  33359.0734     0.90988E-03 
  33391.3356     0.91397E-03 
  33423.5978     0.91809E-03 
  33455.8599     0.92223E-03 
  33488.1221     0.92641E-03 
  33520.3842     0.93061E-03 
  33552.6464     0.93484E-03 
  33584.9086     0.93910E-03 
  33617.1707     0.94339E-03 
  33649.4329     0.94770E-03 
  33681.6950     0.95205E-03 
  33713.9572     0.95643E-03 
  33746.2194     0.96083E-03 
  33778.4815     0.96527E-03 
  33810.7437     0.96973E-03 
  33843.0058     0.97423E-03 
  33875.2680     0.97876E-03 
  33907.5302     0.98332E-03 
  33939.7923     0.98791E-03 
  33972.0545     0.99253E-03 
  34004.3166     0.99718E-03 
  34036.5788     0.10019E-02 
  34068.8410     0.10066E-02 
  34101.1031     0.10113E-02 
  34133.3653     0.10161E-02 
  34165.6274     0.10209E-02 
  34197.8896     0.10258E-02 
  34230.1518     0.10307E-02 
  34262.4139     0.10356E-02 
  34294.6761     0.10405E-02 
  34326.9382     0.10455E-02 
  34359.2004     0.10505E-02 
  34391.4626     0.10556E-02 
  34423.7247     0.10607E-02 
  34455.9869     0.10658E-02 
  34488.2490     0.10710E-02 
  34520.5112     0.10762E-02 
  34552.7734     0.10814E-02 
  34585.0355     0.10867E-02 
  34617.2977     0.10920E-02 
  34649.5598     0.10973E-02 
  34681.8220     0.11027E-02 
  34714.0842     0.11081E-02 
  34746.3463     0.11136E-02 
  34778.6085     0.11191E-02 
  34810.8706     0.11246E-02 
  34843.1328     0.11302E-02 
  34875.3950     0.11358E-02 
  34907.6571     0.11415E-02 
  34939.9193     0.11472E-02 
  34972.1814     0.11529E-02 
  35004.4436     0.11587E-02 
  35036.7058     0.11645E-02 
  35068.9679     0.11704E-02 
  35101.2301     0.11763E-02 
  35133.4922     0.11823E-02 
  35165.7544     0.11882E-02 
  35198.0166     0.11943E-02 
  35230.2787     0.12004E-02 
  35262.5409     0.12065E-02 
  35294.8030     0.12127E-02 
  35327.0652     0.12189E-02 
  35359.3274     0.12251E-02 
  35391.5895     0.12314E-02 
  35423.8517     0.12378E-02 
  35456.1138     0.12442E-02 
  35488.3760     0.12506E-02 
  35520.6382     0.12571E-02 
  35552.9003     0.12636E-02 
  35585.1625     0.12702E-02 
  35617.4246     0.12769E-02 
  35649.6868     0.12835E-02 
  35681.9490     0.12903E-02 
  35714.2111     0.12970E-02 
  35746.4733     0.13039E-02 
  35778.7354     0.13108E-02 
  35810.9976     0.13177E-02 
  35843.2598     0.13247E-02 
  35875.5219     0.13317E-02 
  35907.7841     0.13388E-02 
  35940.0462     0.13460E-02 
  35972.3084     0.13532E-02 
  36004.5706     0.13604E-02 
  36036.8327     0.13677E-02 
  36069.0949     0.13751E-02 
  36101.3570     0.13825E-02 
  36133.6192     0.13900E-02 
  36165.8814     0.13975E-02 
  36198.1435     0.14051E-02 
  36230.4057     0.14127E-02 
  36262.6678     0.14204E-02 
  36294.9300     0.14282E-02 
  36327.1922     0.14360E-02 
  36359.4543     0.14439E-02 
  36391.7165     0.14518E-02 
  36423.9786     0.14598E-02 
  36456.2408     0.14679E-02 
  36488.5030     0.14760E-02 
  36520.7651     0.14842E-02 
  36553.0273     0.14925E-02 
  36585.2894     0.15008E-02 
  36617.5516     0.15092E-02 
  36649.8138     0.15176E-02 
  36682.0759     0.15261E-02 
  36714.3381     0.15347E-02 
  36746.6002     0.15433E-02 
  36778.8624     0.15521E-02 
  36811.1246     0.15608E-02 
  36843.3867     0.15697E-02 
  36875.6489     0.15786E-02 
  36907.9110     0.15876E-02 
  36940.1732     0.15967E-02 
  36972.4354     0.16058E-02 
  37004.6975     0.16150E-02 
  37036.9597     0.16243E-02 
  37069.2218     0.16336E-02 
  37101.4840     0.16431E-02 
  37133.7462     0.16526E-02 
  37166.0083     0.16622E-02 
  37198.2705     0.16718E-02 
  37230.5326     0.16816E-02 
  37262.7948     0.16914E-02 
  37295.0570     0.17013E-02 
  37327.3191     0.17112E-02 
  37359.5813     0.17213E-02 
  37391.8434     0.17314E-02 
  37424.1056     0.17416E-02 
  37456.3678     0.17519E-02 
  37488.6299     0.17623E-02 
  37520.8921     0.17728E-02 
  37553.1542     0.17834E-02 
  37585.4164     0.17940E-02 
  37617.6786     0.18047E-02 
  37649.9407     0.18156E-02 
  37682.2029     0.18265E-02 
  37714.4650     0.18375E-02 
  37746.7272     0.18486E-02 
  37778.9894     0.18597E-02 
  37811.2515     0.18710E-02 
  37843.5137     0.18824E-02 
  37875.7758     0.18939E-02 
  37908.0380     0.19054E-02 
  37940.3002     0.19171E-02 
  37972.5623     0.19288E-02 
  38004.8245     0.19407E-02 
  38037.0866     0.19526E-02 
  38069.3488     0.19647E-02 
  38101.6110     0.19769E-02 
  38133.8731     0.19891E-02 
  38166.1353     0.20015E-02 
  38198.3974     0.20140E-02 
  38230.6596     0.20266E-02 
  38262.9218     0.20393E-02 
  38295.1839     0.20521E-02 
  38327.4461     0.20650E-02 
  38359.7082     0.20780E-02 
  38391.9704     0.20911E-02 
  38424.2326     0.21044E-02 
  38456.4947     0.21177E-02 
  38488.7569     0.21312E-02 
  38521.0190     0.21448E-02 
  38553.2812     0.21585E-02 
  38585.5434     0.21724E-02 
  38617.8055     0.21863E-02 
  38650.0677     0.22004E-02 
  38682.3298     0.22146E-02 
  38714.5920     0.22290E-02 
  38746.8542     0.22434E-02 
  38779.1163     0.22580E-02 
  38811.3785     0.22727E-02 
  38843.6406     0.22876E-02 
  38875.9028     0.23026E-02 
  38908.1650     0.23177E-02 
  38940.4271     0.23329E-02 
  38972.6893     0.23483E-02 
  39004.9514     0.23639E-02 
  39037.2136     0.23795E-02 
  39069.4758     0.23953E-02 
  39101.7379     0.24113E-02 
  39134.0001     0.24274E-02 
  39166.2622     0.24437E-02 
  39198.5244     0.24601E-02 
  39230.7866     0.24766E-02 
  39263.0487     0.24933E-02 
  39295.3109     0.25102E-02 
  39327.5730     0.25272E-02 
  39359.8352     0.25444E-02 
  39392.0974     0.25617E-02 
  39424.3595     0.25792E-02 
  39456.6217     0.25969E-02 
  39488.8838     0.26147E-02 
  39521.1460     0.26327E-02 
  39553.4082     0.26508E-02 
  39585.6703     0.26692E-02 
  39617.9325     0.26877E-02 
  39650.1946     0.27063E-02 
  39682.4568     0.27252E-02 
  39714.7190     0.27442E-02 
  39746.9811     0.27635E-02 
  39779.2433     0.27829E-02 
  39811.5054     0.28025E-02 
  39843.7676     0.28222E-02 
  39876.0298     0.28422E-02 
  39908.2919     0.28624E-02 
  39940.5541     0.28827E-02 
  39972.8162     0.29033E-02 
  40005.0784     0.29241E-02 
  40037.3406     0.29450E-02 
  40069.6027     0.29662E-02 
  40101.8649     0.29876E-02 
  40134.1270     0.30092E-02 
  40166.3892     0.30310E-02 
  40198.6514     0.30530E-02 
  40230.9135     0.30752E-02 
  40263.1757     0.30977E-02 
  40295.4378     0.31204E-02 
  40327.7000     0.31433E-02 
  40359.9622     0.31664E-02 
  40392.2243     0.31898E-02 
  40424.4865     0.32134E-02 
  40456.7486     0.32372E-02 
  40489.0108     0.32613E-02 
  40521.2730     0.32857E-02 
  40553.5351     0.33103E-02 
  40585.7973     0.33351E-02 
  40618.0594     0.33602E-02 
  40650.3216     0.33855E-02 
  40682.5838     0.34112E-02 
  40714.8459     0.34370E-02 
  40747.1081     0.34632E-02 
  40779.3702     0.34896E-02 
  40811.6324     0.35163E-02 
  40843.8946     0.35433E-02 
  40876.1567     0.35705E-02 
  40908.4189     0.35981E-02 
  40940.6810     0.36259E-02 
  40972.9432     0.36541E-02 
  41005.2054     0.36825E-02 
  41037.4675     0.37112E-02 
  41069.7297     0.37403E-02 
  41101.9918     0.37696E-02 
  41134.2540     0.37993E-02 
  41166.5162     0.38293E-02 
  41198.7783     0.38596E-02 
  41231.0405     0.38903E-02 
  41263.3026     0.39212E-02 
  41295.5648     0.39526E-02 
  41327.8270     0.39842E-02 
  41360.0891     0.40162E-02 
  41392.3513     0.40486E-02 
  41424.6134     0.40813E-02 
  41456.8756     0.41144E-02 
  41489.1378     0.41479E-02 
  41521.3999     0.41817E-02 
  41553.6621     0.42159E-02 
  41585.9242     0.42505E-02 
  41618.1864     0.42855E-02 
  41650.4486     0.43209E-02 
  41682.7107     0.43566E-02 
  41714.9729     0.43928E-02 
  41747.2350     0.44294E-02 
  41779.4972     0.44664E-02 
  41811.7594     0.45039E-02 
  41844.0215     0.45418E-02 
  41876.2837     0.45801E-02 
  41908.5458     0.46188E-02 
  41940.8080     0.46580E-02 
  41973.0702     0.46977E-02 
  42005.3323     0.47378E-02 
  42037.5945     0.47784E-02 
  42069.8566     0.48195E-02 
  42102.1188     0.48611E-02 
  42134.3810     0.49032E-02 
  42166.6431     0.49457E-02 
  42198.9053     0.49888E-02 
  42231.1674     0.50324E-02 
  42263.4296     0.50765E-02 
  42295.6918     0.51212E-02 
  42327.9539     0.51664E-02 
  42360.2161     0.52121E-02 
  42392.4782     0.52584E-02 
  42424.7404     0.53053E-02 
  42457.0026     0.53528E-02 
  42489.2647     0.54008E-02 
  42521.5269     0.54494E-02 
  42553.7890     0.54987E-02 
  42586.0512     0.55485E-02 
  42618.3134     0.55990E-02 
  42650.5755     0.56501E-02 
  42682.8377     0.57019E-02 
  42715.0998     0.57543E-02 
  42747.3620     0.58074E-02 
  42779.6242     0.58612E-02 
  42811.8863     0.59156E-02 
  42844.1485     0.59708E-02 
  42876.4106     0.60266E-02 
  42908.6728     0.60832E-02 
  42940.9350     0.61406E-02 
  42973.1971     0.61987E-02 
  43005.4593     0.62575E-02 
  43037.7214     0.63171E-02 
  43069.9836     0.63775E-02 
  43102.2458     0.64387E-02 
  43134.5079     0.65008E-02 
  43166.7701     0.65636E-02 
  43199.0322     0.66273E-02 
  43231.2944     0.66919E-02 
  43263.5566     0.67573E-02 
  43295.8187     0.68237E-02 
  43328.0809     0.68909E-02 
  43360.3430     0.69591E-02 
  43392.6052     0.70282E-02 
  43424.8674     0.70982E-02 
  43457.1295     0.71692E-02 
  43489.3917     0.72413E-02 
  43521.6538     0.73143E-02 
  43553.9160     0.73884E-02 
  43586.1782     0.74635E-02 
  43618.4403     0.75397E-02 
  43650.7025     0.76169E-02 
  43682.9646     0.76953E-02 
  43715.2268     0.77748E-02 
  43747.4890     0.78555E-02 
  43779.7511     0.79373E-02 
  43812.0133     0.80203E-02 
  43844.2754     0.81045E-02 
  43876.5376     0.81900E-02 
  43908.7998     0.82768E-02 
  43941.0619     0.83648E-02 
  43973.3241     0.84541E-02 
  44005.5862     0.85448E-02 
  44037.8484     0.86369E-02 
  44070.1106     0.87304E-02 
  44102.3727     0.88252E-02 
  44134.6349     0.89216E-02 
  44166.8970     0.90194E-02 
  44199.1592     0.91187E-02 
  44231.4214     0.92196E-02 
  44263.6835     0.93220E-02 
  44295.9457     0.94261E-02 
  44328.2078     0.95318E-02 
  44360.4700     0.96391E-02 
  44392.7322     0.97482E-02 
  44424.9943     0.98590E-02 
  44457.2565     0.99716E-02 
  44489.5186     0.10086E-01 
  44521.7808     0.10202E-01 
  44554.0430     0.10321E-01 
  44586.3051     0.10441E-01 
  44618.5673     0.10563E-01 
  44650.8294     0.10687E-01 
  44683.0916     0.10813E-01 
  44715.3538     0.10942E-01 
  44747.6159     0.11072E-01 
  44779.8781     0.11205E-01 
  44812.1402     0.11340E-01 
  44844.4024     0.11477E-01 
  44876.6646     0.11617E-01 
  44908.9267     0.11759E-01 
  44941.1889     0.11904E-01 
  44973.4510     0.12051E-01 
  45005.7132     0.12201E-01 
  45037.9754     0.12353E-01 
  45070.2375     0.12509E-01 
  45102.4997     0.12667E-01 
  45134.7618     0.12827E-01 
  45167.0240     0.12991E-01 
  45199.2862     0.13158E-01 
  45231.5483     0.13328E-01 
  45263.8105     0.13501E-01 
  45296.0726     0.13677E-01 
  45328.3348     0.13857E-01 
  45360.5970     0.14040E-01 
  45392.8591     0.14227E-01 
  45425.1213     0.14417E-01 
  45457.3834     0.14611E-01 
  45489.6456     0.14808E-01 
  45521.9078     0.15010E-01 
  45554.1699     0.15216E-01 
  45586.4321     0.15425E-01 
  45618.6942     0.15639E-01 
  45650.9564     0.15857E-01 
  45683.2186     0.16080E-01 
  45715.4807     0.16307E-01 
  45747.7429     0.16539E-01 
  45780.0050     0.16776E-01 
  45812.2672     0.17017E-01 
  45844.5294     0.17264E-01 
  45876.7915     0.17516E-01 
  45909.0537     0.17774E-01 
  45941.3158     0.18037E-01 
  45973.5780     0.18306E-01 
  46005.8402     0.18581E-01 
  46038.1023     0.18862E-01 
  46070.3645     0.19149E-01 
  46102.6266     0.19443E-01 
  46134.8888     0.19743E-01 
  46167.1510     0.20050E-01 
  46199.4131     0.20365E-01 
  46231.6753     0.20687E-01 
  46263.9374     0.21016E-01 
  46296.1996     0.21354E-01 
  46328.4618     0.21699E-01 
  46360.7239     0.22053E-01 
  46392.9861     0.22416E-01 
  46425.2482     0.22787E-01 
  46457.5104     0.23168E-01 
  46489.7726     0.23559E-01 
  46522.0347     0.23959E-01 
  46554.2969     0.24370E-01 
  46586.5590     0.24792E-01 
  46618.8212     0.25225E-01 
  46651.0834     0.25669E-01 
  46683.3455     0.26126E-01 
  46715.6077     0.26595E-01 
  46747.8698     0.27077E-01 
  46780.1320     0.27572E-01 
  46812.3942     0.28082E-01 
  46844.6563     0.28606E-01 
  46876.9185     0.29145E-01 
  46909.1806     0.29700E-01 
  46941.4428     0.30272E-01 
  46973.7050     0.30861E-01 
  47005.9671     0.31468E-01 
  47038.2293     0.32094E-01 
  47070.4914     0.32739E-01 
  47102.7536     0.33406E-01 
  47135.0158     0.34093E-01 
  47167.2779     0.34804E-01 
  47199.5401     0.35538E-01 
  47231.8022     0.36297E-01 
  47264.0644     0.37082E-01 
  47296.3266     0.37894E-01 
  47328.5887     0.38736E-01 
  47360.8509     0.39607E-01 
  47393.1130     0.40511E-01 
  47425.3752     0.41449E-01 
  47457.6374     0.42423E-01 
  47489.8995     0.43434E-01 
  47522.1617     0.44486E-01 
  47554.4238     0.45580E-01 
  47586.6860     0.46718E-01 
  47618.9482     0.47905E-01 
  47651.2103     0.49142E-01 
  47683.4725     0.50434E-01 
  47715.7346     0.51783E-01 
  47747.9968     0.53193E-01 
  47780.2590     0.54670E-01 
  47812.5211     0.56216E-01 
  47844.7833     0.57837E-01 
  47877.0454     0.59539E-01 
  47909.3076     0.61327E-01 
  47941.5698     0.63208E-01 
  47973.8319     0.65188E-01 
  48006.0941     0.67275E-01 
  48038.3562     0.69475E-01 
  48070.6184     0.71798E-01 
  48102.8806     0.74251E-01 
  48135.1427     0.76844E-01 
  48167.4049     0.79584E-01 
  48199.6670     0.82478E-01 
  48231.9292     0.85533E-01 
  48264.1914     0.88752E-01 
  48296.4535     0.92135E-01 
  48328.7157     0.95675E-01 
  48360.9778     0.99357E-01 
  48393.2400     0.10315E+00 
  48425.5022     0.10702E+00 
  48457.7643     0.11089E+00 
  48490.0265     0.11467E+00 
  48522.2886     0.11826E+00 
  48554.5508     0.12153E+00 
  48586.8130     0.12432E+00 
  48619.0751     0.12655E+00 
  48651.3373     0.12812E+00 
  48683.5994     0.12905E+00 
  48715.8616     0.12946E+00 
  48748.1238     0.12951E+00 
  48780.3859     0.12945E+00 
  48812.6481     0.12951E+00 
  48844.9102     0.12985E+00 
  48877.1724     0.13058E+00 
  48909.4346     0.13170E+00 
  48941.6967     0.13312E+00 
  48973.9589     0.13470E+00 
  49006.2210     0.13629E+00 
  49038.4832     0.13773E+00 
  49070.7454     0.13894E+00 
  49103.0075     0.13990E+00 
  49135.2697     0.14068E+00 
  49167.5318     0.14140E+00 
  49199.7940     0.14224E+00 
  49232.0562     0.14334E+00 
  49264.3183     0.14482E+00 
  49296.5805     0.14675E+00 
  49328.8426     0.14913E+00 
  49361.1048     0.15196E+00 
  49393.3670     0.15518E+00 
  49425.6291     0.15876E+00 
  49457.8913     0.16265E+00 
  49490.1534     0.16684E+00 
  49522.4156     0.17134E+00 
  49554.6778     0.17620E+00 
  49586.9399     0.18149E+00 
  49619.2021     0.18729E+00 
  49651.4642     0.19366E+00 
  49683.7264     0.20065E+00 
  49715.9886     0.20829E+00 
  49748.2507     0.21658E+00 
  49780.5129     0.22553E+00 
  49812.7750     0.23511E+00 
  49845.0372     0.24527E+00 
  49877.2994     0.25593E+00 
  49909.5615     0.26701E+00 
  49941.8237     0.27834E+00 
  49974.0858     0.28973E+00 
  50006.3480     0.30089E+00 
  50038.6102     0.31146E+00 
  50070.8723     0.32104E+00 
  50103.1345     0.32922E+00 
  50135.3966     0.33572E+00 
  50167.6588     0.34046E+00 
  50199.9210     0.34360E+00 
  50232.1831     0.34554E+00 
  50264.4453     0.34684E+00 
  50296.7074     0.34806E+00 
  50328.9696     0.34967E+00 
  50361.2318     0.35190E+00 
  50393.4939     0.35474E+00 
  50425.7561     0.35791E+00 
  50458.0182     0.36094E+00 
  50490.2804     0.36332E+00 
  50522.5426     0.36457E+00 
  50554.8047     0.36443E+00 
  50587.0669     0.36291E+00 
  50619.3290     0.36026E+00 
  50651.5912     0.35695E+00 
  50683.8534     0.35353E+00 
  50716.1155     0.35048E+00 
  50748.3777     0.34816E+00 
  50780.6398     0.34674E+00 
  50812.9020     0.34620E+00 
  50845.1642     0.34641E+00 
  50877.4263     0.34714E+00 
  50909.6885     0.34814E+00 
  50941.9506     0.34925E+00 
  50974.2128     0.35039E+00 
  51006.4750     0.35164E+00 
  51038.7371     0.35315E+00 
  51070.9993     0.35515E+00 
  51103.2614     0.35786E+00 
  51135.5236     0.36148E+00 
  51167.7858     0.36612E+00 
  51200.0479     0.37186E+00 
  51232.3101     0.37868E+00 
  51264.5722     0.38656E+00 
  51296.8344     0.39541E+00 
  51329.0966     0.40515E+00 
  51361.3587     0.41570E+00 
  51393.6209     0.42699E+00 
  51425.8830     0.43895E+00 
  51458.1452     0.45147E+00 
  51490.4074     0.46438E+00 
  51522.6695     0.47739E+00 
  51554.9317     0.49011E+00 
  51587.1938     0.50214E+00 
  51619.4560     0.51310E+00 
  51651.7182     0.52279E+00 
  51683.9803     0.53122E+00 
  51716.2425     0.53860E+00 
  51748.5046     0.54533E+00 
  51780.7668     0.55186E+00 
  51813.0290     0.55859E+00 
  51845.2911     0.56571E+00 
  51877.5533     0.57315E+00 
  51909.8154     0.58056E+00 
  51942.0776     0.58737E+00 
  51974.3398     0.59297E+00 
  52006.6019     0.59683E+00 
  52038.8641     0.59866E+00 
  52071.1262     0.59853E+00 
  52103.3884     0.59678E+00 
  52135.6506     0.59400E+00 
  52167.9127     0.59083E+00 
  52200.1749     0.58784E+00 
  52232.4370     0.58540E+00 
  52264.6992     0.58366E+00 
  52296.9614     0.58252E+00 
  52329.2235     0.58169E+00 
  52361.4857     0.58082E+00 
  52393.7478     0.57957E+00 
  52426.0100     0.57774E+00 
  52458.2722     0.57530E+00 
  52490.5343     0.57240E+00 
  52522.7965     0.56931E+00 
  52555.0586     0.56635E+00 
  52587.3208     0.56383E+00 
  52619.5830     0.56199E+00 
  52651.8451     0.56096E+00 
  52684.1073     0.56078E+00 
  52716.3694     0.56141E+00 
  52748.6316     0.56275E+00 
  52780.8938     0.56465E+00 
  52813.1559     0.56702E+00 
  52845.4181     0.56980E+00 
  52877.6802     0.57297E+00 
  52909.9424     0.57657E+00 
  52942.2046     0.58064E+00 
  52974.4667     0.58517E+00 
  53006.7289     0.59010E+00 
  53038.9910     0.59531E+00 
  53071.2532     0.60062E+00 
  53103.5154     0.60586E+00 
  53135.7775     0.61087E+00 
  53168.0397     0.61560E+00 
  53200.3018     0.62008E+00 
  53232.5640     0.62445E+00 
  53264.8262     0.62887E+00 
  53297.0883     0.63349E+00 
  53329.3505     0.63838E+00 
  53361.6126     0.64345E+00 
  53393.8748     0.64847E+00 
  53426.1370     0.65311E+00 
  53458.3991     0.65701E+00 
  53490.6613     0.65991E+00 
  53522.9234     0.66167E+00 
  53555.1856     0.66237E+00 
  53587.4478     0.66222E+00 
  53619.7099     0.66157E+00 
  53651.9721     0.66077E+00 
  53684.2342     0.66010E+00 
  53716.4964     0.65971E+00 
  53748.7586     0.65959E+00 
  53781.0207     0.65958E+00 
  53813.2829     0.65942E+00 
  53845.5450     0.65888E+00 
  53877.8072     0.65777E+00 
  53910.0694     0.65603E+00 
  53942.3315     0.65372E+00 
  53974.5937     0.65102E+00 
  54006.8558     0.64814E+00 
  54039.1180     0.64532E+00 
  54071.3802     0.64274E+00 
  54103.6423     0.64050E+00 
  54135.9045     0.63863E+00 
  54168.1666     0.63710E+00 
  54200.4288     0.63581E+00 
  54232.6910     0.63465E+00 
  54264.9531     0.63354E+00 
  54297.2153     0.63242E+00 
  54329.4774     0.63128E+00 
  54361.7396     0.63014E+00 
  54394.0018     0.62905E+00 
  54426.2639     0.62806E+00 
  54458.5261     0.62718E+00 
  54490.7882     0.62642E+00 
  54523.0504     0.62574E+00 
  54555.3126     0.62508E+00 
  54587.5747     0.62438E+00 
  54619.8369     0.62360E+00 
  54652.0990     0.62272E+00 
  54684.3612     0.62177E+00 
  54716.6234     0.62078E+00 
  54748.8855     0.61982E+00 
  54781.1477     0.61891E+00 
  54813.4098     0.61805E+00 
  54845.6720     0.61715E+00 
  54877.9342     0.61610E+00 
  54910.1963     0.61478E+00 
  54942.4585     0.61308E+00 
  54974.7206     0.61094E+00 
  55006.9828     0.60838E+00 
  55039.2450     0.60550E+00 
  55071.5071     0.60244E+00 
  55103.7693     0.59936E+00 
  55136.0314     0.59639E+00 
  55168.2936     0.59360E+00 
  55200.5558     0.59096E+00 
  55232.8179     0.58840E+00 
  55265.0801     0.58579E+00 
  55297.3422     0.58299E+00 
  55329.6044     0.57994E+00 
  55361.8666     0.57661E+00 
  55394.1287     0.57306E+00 
  55426.3909     0.56939E+00 
  55458.6530     0.56575E+00 
  55490.9152     0.56227E+00 
  55523.1774     0.55902E+00 
  55555.4395     0.55604E+00 
  55587.7017     0.55332E+00 
  55619.9638     0.55080E+00 
  55652.2260     0.54841E+00 
  55684.4882     0.54608E+00 
  55716.7503     0.54376E+00 
  55749.0125     0.54144E+00 
  55781.2746     0.53913E+00 
  55813.5368     0.53686E+00 
  55845.7990     0.53469E+00 
  55878.0611     0.53261E+00 
  55910.3233     0.53065E+00 
  55942.5854     0.52879E+00 
  55974.8476     0.52698E+00 
  56007.1098     0.52518E+00 
  56039.3719     0.52334E+00 
  56071.6341     0.52141E+00 
  56103.8962     0.51939E+00 
  56136.1584     0.51727E+00 
  56168.4206     0.51507E+00 
  56200.6827     0.51282E+00 
  56232.9449     0.51055E+00 
  56265.2070     0.50824E+00 
  56297.4692     0.50587E+00 
  56329.7314     0.50338E+00 
  56361.9935     0.50071E+00 
  56394.2557     0.49778E+00 
  56426.5178     0.49457E+00 
  56458.7800     0.49107E+00 
  56491.0422     0.48732E+00 
  56523.3043     0.48340E+00 
  56555.5665     0.47939E+00 
  56587.8286     0.47538E+00 
  56620.0908     0.47142E+00 
  56652.3530     0.46750E+00 
  56684.6151     0.46358E+00 
  56716.8773     0.45961E+00 
  56749.1394     0.45550E+00 
  56781.4016     0.45121E+00 
  56813.6638     0.44672E+00 
  56845.9259     0.44208E+00 
  56878.1881     0.43736E+00 
  56910.4502     0.43266E+00 
  56942.7124     0.42805E+00 
  56974.9746     0.42363E+00 
  57007.2367     0.41940E+00 
  57039.4989     0.41537E+00 
  57071.7610     0.41150E+00 
  57104.0232     0.40772E+00 
  57136.2854     0.40401E+00 
  57168.5475     0.40032E+00 
  57200.8097     0.39666E+00 
  57233.0718     0.39305E+00 
  57265.3340     0.38953E+00 
  57297.5962     0.38615E+00 
  57329.8583     0.38295E+00 
  57362.1205     0.37993E+00 
  57394.3826     0.37709E+00 
  57426.6448     0.37440E+00 
  57458.9070     0.37182E+00 
  57491.1691     0.36932E+00 
  57523.4313     0.36685E+00 
  57555.6934     0.36440E+00 
  57587.9556     0.36195E+00 
  57620.2178     0.35952E+00 
  57652.4799     0.35712E+00 
  57684.7421     0.35476E+00 
  57717.0042     0.35245E+00 
  57749.2664     0.35019E+00 
  57781.5286     0.34795E+00 
  57813.7907     0.34569E+00 
  57846.0529     0.34337E+00 
  57878.3150     0.34096E+00 
  57910.5772     0.33843E+00 
  57942.8394     0.33578E+00 
  57975.1015     0.33301E+00 
  58007.3637     0.33016E+00 
  58039.6258     0.32727E+00 
  58071.8880     0.32436E+00 
  58104.1502     0.32145E+00 
  58136.4123     0.31853E+00 
  58168.6745     0.31559E+00 
  58200.9366     0.31257E+00 
  58233.1988     0.30945E+00 
  58265.4610     0.30621E+00 
  58297.7231     0.30285E+00 
  58329.9853     0.29938E+00 
  58362.2474     0.29585E+00 
  58394.5096     0.29231E+00 
  58426.7718     0.28879E+00 
  58459.0339     0.28534E+00 
  58491.2961     0.28196E+00 
  58523.5582     0.27864E+00 
  58555.8204     0.27536E+00 
  58588.0826     0.27210E+00 
  58620.3447     0.26884E+00 
  58652.6069     0.26556E+00 
  58684.8690     0.26229E+00 
  58717.1312     0.25904E+00 
  58749.3934     0.25584E+00 
  58781.6555     0.25273E+00 
  58813.9177     0.24973E+00 
  58846.1798     0.24684E+00 
  58878.4420     0.24406E+00 
  58910.7042     0.24138E+00 
  58942.9663     0.23878E+00 
  58975.2285     0.23624E+00 
  59007.4906     0.23374E+00 
  59039.7528     0.23129E+00 
  59072.0150     0.22888E+00 
  59104.2771     0.22652E+00 
  59136.5393     0.22423E+00 
  59168.8014     0.22200E+00 
  59201.0636     0.21985E+00 
  59233.3258     0.21777E+00 
  59265.5879     0.21574E+00 
  59297.8501     0.21376E+00 
  59330.1122     0.21181E+00 
  59362.3744     0.20986E+00 
  59394.6366     0.20790E+00 
  59426.8987     0.20594E+00 
  59459.1609     0.20397E+00 
  59491.4230     0.20200E+00 
  59523.6852     0.20003E+00 
  59555.9474     0.19809E+00 
  59588.2095     0.19616E+00 
  59620.4717     0.19425E+00 
  59652.7338     0.19235E+00 
  59684.9960     0.19043E+00 
  59717.2582     0.18848E+00 
  59749.5203     0.18650E+00 
  59781.7825     0.18447E+00 
  59814.0446     0.18242E+00 
  59846.3068     0.18034E+00 
  59878.5690     0.17826E+00 
  59910.8311     0.17619E+00 
  59943.0933     0.17413E+00 
  59975.3554     0.17209E+00 
  60007.6176     0.17007E+00 
  60039.8798     0.16805E+00 
  60072.1419     0.16604E+00 
  60104.4041     0.16401E+00 
  60136.6662     0.16197E+00 
  60168.9284     0.15993E+00 
  60201.1906     0.15790E+00 
  60233.4527     0.15588E+00 
  60265.7149     0.15389E+00 
  60297.9770     0.15194E+00 
  60330.2392     0.15003E+00 
  60362.5014     0.14817E+00 
  60394.7635     0.14634E+00 
  60427.0257     0.14454E+00 
  60459.2878     0.14277E+00 
  60491.5500     0.14102E+00 
  60523.8122     0.13930E+00 
  60556.0743     0.13760E+00 
  60588.3365     0.13594E+00 
  60620.5986     0.13431E+00 
  60652.8608     0.13272E+00 
  60685.1230     0.13117E+00 
  60717.3851     0.12967E+00 
  60749.6473     0.12820E+00 
  60781.9094     0.12677E+00 
  60814.1716     0.12537E+00 
  60846.4338     0.12398E+00 
  60878.6959     0.12262E+00 
  60910.9581     0.12127E+00 
  60943.2202     0.11994E+00 
  60975.4824     0.11863E+00 
  61007.7446     0.11735E+00 
  61040.0067     0.11609E+00 
  61072.2689     0.11485E+00 
  61104.5310     0.11363E+00 
  61136.7932     0.11243E+00 
  61169.0554     0.11124E+00 
  61201.3175     0.11005E+00 
  61233.5797     0.10887E+00 
  61265.8418     0.10769E+00 
  61298.1040     0.10652E+00 
  61330.3662     0.10535E+00 
  61362.6283     0.10419E+00 
  61394.8905     0.10303E+00 
  61427.1526     0.10189E+00 
  61459.4148     0.10077E+00 
  61491.6770     0.99650E-01 
  61523.9391     0.98541E-01 
  61556.2013     0.97436E-01 
  61588.4634     0.96334E-01 
  61620.7256     0.95232E-01 
  61652.9878     0.94134E-01 
  61685.2499     0.93041E-01 
  61717.5121     0.91958E-01 
  61749.7742     0.90887E-01 
  61782.0364     0.89830E-01 
  61814.2986     0.88790E-01 
  61846.5607     0.87765E-01 
  61878.8229     0.86753E-01 
  61911.0850     0.85754E-01 
  61943.3472     0.84765E-01 
  61975.6094     0.83786E-01 
  62007.8715     0.82819E-01 
  62040.1337     0.81863E-01 
  62072.3958     0.80922E-01 
  62104.6580     0.79997E-01 
  62136.9202     0.79090E-01 
  62169.1823     0.78201E-01 
  62201.4445     0.77330E-01 
  62233.7066     0.76476E-01 
  62265.9688     0.75638E-01 
  62298.2310     0.74814E-01 
  62330.4931     0.74003E-01 
  62362.7553     0.73205E-01 
  62395.0174     0.72419E-01 
  62427.2796     0.71646E-01 
  62459.5418     0.70887E-01 
  62491.8039     0.70142E-01 
  62524.0661     0.69412E-01 
  62556.3282     0.68696E-01 
  62588.5904     0.67993E-01 
  62620.8526     0.67302E-01 
  62653.1147     0.66621E-01 
  62685.3769     0.65951E-01 
  62717.6390     0.65288E-01 
  62749.9012     0.64634E-01 
  62782.1634     0.63988E-01 
  62814.4255     0.63350E-01 
  62846.6877     0.62721E-01 
  62878.9498     0.62101E-01 
  62911.2120     0.61490E-01 
  62943.4742     0.60888E-01 
  62975.7363     0.60295E-01 
  63007.9985     0.59708E-01 
  63040.2606     0.59128E-01 
  63072.5228     0.58553E-01 
  63104.7850     0.57984E-01 
  63137.0471     0.57420E-01 
  63169.3093     0.56862E-01 
  63201.5714     0.56311E-01 
  63233.8336     0.55767E-01 
  63266.0958     0.55230E-01 
  63298.3579     0.54702E-01 
  63330.6201     0.54180E-01 
  63362.8822     0.53665E-01 
  63395.1444     0.53157E-01 
  63427.4066     0.52654E-01 
  63459.6687     0.52157E-01 
  63491.9309     0.51667E-01 
  63524.1930     0.51182E-01 
  63556.4552     0.50705E-01 
  63588.7174     0.50235E-01 
  63620.9795     0.49772E-01 
  63653.2417     0.49318E-01 
  63685.5038     0.48870E-01 
  63717.7660     0.48430E-01 
  63750.0282     0.47997E-01 
  63782.2903     0.47571E-01 
  63814.5525     0.47151E-01 
  63846.8146     0.46737E-01 
  63879.0768     0.46330E-01 
  63911.3390     0.45930E-01 
  63943.6011     0.45536E-01 
  63975.8633     0.45149E-01 
  64008.1254     0.44769E-01 
  64040.3876     0.44396E-01 
  64072.6498     0.44029E-01 
  64104.9119     0.43668E-01 
  64137.1741     0.43313E-01 
  64169.4362     0.42964E-01 
  64201.6984     0.42620E-01 
  64233.9606     0.42281E-01 
  64266.2227     0.41948E-01 
  64298.4849     0.41620E-01 
  64330.7470     0.41297E-01 
  64363.0092     0.40979E-01 
  64395.2714     0.40667E-01 
  64427.5335     0.40359E-01 
  64459.7957     0.40056E-01 
  64492.0578     0.39758E-01 
  64524.3200     0.39464E-01 
  64556.5822     0.39174E-01 
  64588.8443     0.38888E-01 
  64621.1065     0.38607E-01 
  64653.3686     0.38329E-01 
  64685.6308     0.38055E-01 
  64717.8930     0.37785E-01 
  64750.1551     0.37519E-01 
  64782.4173     0.37258E-01 
  64814.6794     0.37000E-01 
  64846.9416     0.36746E-01 
  64879.2038     0.36495E-01 
  64911.4659     0.36248E-01 
  64943.7281     0.36004E-01 
  64975.9902     0.35764E-01 
  65008.2524     0.35527E-01 
  65040.5146     0.35294E-01 
  65072.7767     0.35064E-01 
  65105.0389     0.34838E-01 
  65137.3010     0.34615E-01 
  65169.5632     0.34396E-01 
  65201.8254     0.34181E-01 
  65234.0875     0.33968E-01 
  65266.3497     0.33759E-01 
  65298.6118     0.33553E-01 
  65330.8740     0.33350E-01 
  65363.1362     0.33150E-01 
  65395.3983     0.32953E-01 
  65427.6605     0.32760E-01 
  65459.9226     0.32570E-01 
  65492.1848     0.32382E-01 
  65524.4470     0.32198E-01 
  65556.7091     0.32017E-01 
  65588.9713     0.31839E-01 
  65621.2334     0.31664E-01 
  65653.4956     0.31491E-01 
  65685.7578     0.31321E-01 
  65718.0199     0.31154E-01 
  65750.2821     0.30990E-01 
  65782.5442     0.30828E-01 
  65814.8064     0.30669E-01 
  65847.0686     0.30512E-01 
  65879.3307     0.30358E-01 
  65911.5929     0.30207E-01 
  65943.8550     0.30057E-01 
  65976.1172     0.29911E-01 
  66008.3794     0.29766E-01 
  66040.6415     0.29624E-01 
  66072.9037     0.29484E-01 
  66105.1658     0.29346E-01 
  66137.4280     0.29210E-01 
  66169.6902     0.29077E-01 
  66201.9523     0.28945E-01 
  66234.2145     0.28816E-01 
  66266.4766     0.28689E-01 
  66298.7388     0.28563E-01 
  66331.0010     0.28440E-01 
  66363.2631     0.28318E-01 
  66395.5253     0.28199E-01 
  66427.7874     0.28081E-01 
  66460.0496     0.27965E-01 
  66492.3118     0.27851E-01 
  66524.5739     0.27738E-01 
  66556.8361     0.27628E-01 
  66589.0982     0.27519E-01 
  66621.3604     0.27412E-01 
  66653.6226     0.27307E-01 
  66685.8847     0.27203E-01 
  66718.1469     0.27101E-01 
  66750.4090     0.27000E-01 
  66782.6712     0.26901E-01 
  66814.9334     0.26804E-01 
  66847.1955     0.26708E-01 
  66879.4577     0.26614E-01 
  66911.7198     0.26521E-01 
  66943.9820     0.26430E-01 
  66976.2442     0.26341E-01 
  67008.5063     0.26252E-01 
  67040.7685     0.26166E-01 
  67073.0306     0.26080E-01 
  67105.2928     0.25996E-01 
  67137.5550     0.25914E-01 
  67169.8171     0.25833E-01 
  67202.0793     0.25753E-01 
  67234.3414     0.25675E-01 
  67266.6036     0.25597E-01 
  67298.8658     0.25522E-01 
  67331.1279     0.25447E-01 
  67363.3901     0.25374E-01 
  67395.6522     0.25302E-01 
  67427.9144     0.25231E-01 
  67460.1766     0.25161E-01 
  67492.4387     0.25093E-01 
  67524.7009     0.25025E-01 
  67556.9630     0.24959E-01 
  67589.2252     0.24894E-01 
  67621.4874     0.24830E-01 
  67653.7495     0.24767E-01 
  67686.0117     0.24705E-01 
  67718.2738     0.24645E-01 
  67750.5360     0.24585E-01 
  67782.7982     0.24527E-01 
  67815.0603     0.24469E-01 
  67847.3225     0.24412E-01 
  67879.5846     0.24357E-01 
  67911.8468     0.24302E-01 
  67944.1090     0.24249E-01 
  67976.3711     0.24196E-01 
  68008.6333     0.24144E-01 
  68040.8954     0.24093E-01 
  68073.1576     0.24044E-01 
  68105.4198     0.23995E-01 
  68137.6819     0.23946E-01 
  68169.9441     0.23899E-01 
  68202.2062     0.23853E-01 
  68234.4684     0.23807E-01 
  68266.7306     0.23763E-01 
  68298.9927     0.23719E-01 
  68331.2549     0.23676E-01 
  68363.5170     0.23634E-01 
  68395.7792     0.23593E-01 
  68428.0414     0.23552E-01 
  68460.3035     0.23512E-01 
  68492.5657     0.23473E-01 
  68524.8278     0.23435E-01 
  68557.0900     0.23398E-01 
  68589.3522     0.23361E-01 
  68621.6143     0.23325E-01 
  68653.8765     0.23290E-01 
  68686.1386     0.23256E-01 
  68718.4008     0.23222E-01 
  68750.6630     0.23189E-01 
  68782.9251     0.23157E-01 
  68815.1873     0.23125E-01 
  68847.4494     0.23094E-01 
  68879.7116     0.23064E-01 
  68911.9738     0.23035E-01 
  68944.2359     0.23006E-01 
  68976.4981     0.22977E-01 
  69008.7602     0.22950E-01 
  69041.0224     0.22923E-01 
  69073.2846     0.22897E-01 
  69105.5467     0.22871E-01 
  69137.8089     0.22846E-01 
  69170.0710     0.22822E-01 
  69202.3332     0.22798E-01 
  69234.5954     0.22775E-01 
  69266.8575     0.22752E-01 
  69299.1197     0.22730E-01 
  69331.3818     0.22709E-01 
  69363.6440     0.22688E-01 
  69395.9062     0.22668E-01 
  69428.1683     0.22648E-01 
  69460.4305     0.22629E-01 
  69492.6926     0.22610E-01 
  69524.9548     0.22592E-01 
  69557.2170     0.22575E-01 
  69589.4791     0.22558E-01 
  69621.7413     0.22541E-01 
  69654.0034     0.22526E-01 
  69686.2656     0.22510E-01 
  69718.5278     0.22495E-01 
  69750.7899     0.22481E-01 
  69783.0521     0.22467E-01 
  69815.3142     0.22454E-01 
  69847.5764     0.22441E-01 
  69879.8386     0.22429E-01 
  69912.1007     0.22418E-01 
  69944.3629     0.22406E-01 
  69976.6250     0.22396E-01 
  70008.8872     0.22385E-01 
  70041.1494     0.22376E-01 
  70073.4115     0.22366E-01 
  70105.6737     0.22357E-01 
  70137.9358     0.22349E-01 
  70170.1980     0.22341E-01 
  70202.4602     0.22334E-01 
  70234.7223     0.22327E-01 
  70266.9845     0.22320E-01 
  70299.2466     0.22314E-01 
  70331.5088     0.22309E-01 
  70363.7710     0.22304E-01 
  70396.0331     0.22299E-01 
  70428.2953     0.22295E-01 
  70460.5574     0.22291E-01 
  70492.8196     0.22288E-01 
  70525.0818     0.22285E-01 
  70557.3439     0.22282E-01 
  70589.6061     0.22280E-01 
  70621.8682     0.22279E-01 
  70654.1304     0.22277E-01 
  70686.3926     0.22277E-01 
  70718.6547     0.22276E-01 
  70750.9169     0.22276E-01 
  70783.1790     0.22277E-01 
  70815.4412     0.22278E-01 
  70847.7034     0.22279E-01 
  70879.9655     0.22281E-01 
  70912.2277     0.22283E-01 
  70944.4898     0.22285E-01 
  70976.7520     0.22288E-01 
  71009.0142     0.22292E-01 
  71041.2763     0.22295E-01 
  71073.5385     0.22300E-01 
  71105.8006     0.22304E-01 
  71138.0628     0.22309E-01 
  71170.3250     0.22314E-01 
  71202.5871     0.22320E-01 
  71234.8493     0.22326E-01 
  71267.1114     0.22333E-01 
  71299.3736     0.22340E-01 
  71331.6358     0.22347E-01 
  71363.8979     0.22355E-01 
  71396.1601     0.22363E-01 
  71428.4222     0.22371E-01 
  71460.6844     0.22380E-01 
  71492.9466     0.22389E-01 
  71525.2087     0.22399E-01 
  71557.4709     0.22409E-01 
  71589.7330     0.22419E-01 
  71621.9952     0.22430E-01 
  71654.2574     0.22441E-01 
  71686.5195     0.22452E-01 
  71718.7817     0.22464E-01 
  71751.0438     0.22476E-01 
  71783.3060     0.22489E-01 
  71815.5682     0.22502E-01 
  71847.8303     0.22515E-01 
  71880.0925     0.22529E-01 
  71912.3546     0.22543E-01 
  71944.6168     0.22557E-01 
  71976.8790     0.22572E-01 
  72009.1411     0.22587E-01 
  72041.4033     0.22603E-01 
  72073.6654     0.22619E-01 
  72105.9276     0.22635E-01 
  72138.1898     0.22652E-01 
  72170.4519     0.22669E-01 
  72202.7141     0.22686E-01 
  72234.9762     0.22704E-01 
  72267.2384     0.22722E-01 
  72299.5006     0.22740E-01 
  72331.7627     0.22759E-01 
  72364.0249     0.22778E-01 
  72396.2870     0.22798E-01 
  72428.5492     0.22818E-01 
  72460.8114     0.22838E-01 
  72493.0735     0.22859E-01 
  72525.3357     0.22880E-01 
  72557.5978     0.22901E-01 
  72589.8600     0.22923E-01 
