  32262.1600     0.23216E+02 
  32294.4222     0.23446E+02 
  32326.6843     0.23678E+02 
  32358.9465     0.23914E+02 
  32391.2086     0.24153E+02 
  32423.4708     0.24395E+02 
  32455.7330     0.24639E+02 
  32487.9951     0.24887E+02 
  32520.2573     0.25139E+02 
  32552.5194     0.25393E+02 
  32584.7816     0.25651E+02 
  32617.0438     0.25912E+02 
  32649.3059     0.26177E+02 
  32681.5681     0.26445E+02 
  32713.8302     0.26717E+02 
  32746.0924     0.26992E+02 
  32778.3546     0.27271E+02 
  32810.6167     0.27553E+02 
  32842.8789     0.27840E+02 
  32875.1410     0.28130E+02 
  32907.4032     0.28424E+02 
  32939.6654     0.28722E+02 
  32971.9275     0.29024E+02 
  33004.1897     0.29331E+02 
  33036.4518     0.29641E+02 
  33068.7140     0.29956E+02 
  33100.9762     0.30275E+02 
  33133.2383     0.30599E+02 
  33165.5005     0.30927E+02 
  33197.7626     0.31260E+02 
  33230.0248     0.31597E+02 
  33262.2870     0.31939E+02 
  33294.5491     0.32286E+02 
  33326.8113     0.32638E+02 
  33359.0734     0.32994E+02 
  33391.3356     0.33356E+02 
  33423.5978     0.33723E+02 
  33455.8599     0.34096E+02 
  33488.1221     0.34474E+02 
  33520.3842     0.34857E+02 
  33552.6464     0.35246E+02 
  33584.9086     0.35640E+02 
  33617.1707     0.36041E+02 
  33649.4329     0.36447E+02 
  33681.6950     0.36859E+02 
  33713.9572     0.37278E+02 
  33746.2194     0.37702E+02 
  33778.4815     0.38133E+02 
  33810.7437     0.38571E+02 
  33843.0058     0.39015E+02 
  33875.2680     0.39466E+02 
  33907.5302     0.39924E+02 
  33939.7923     0.40389E+02 
  33972.0545     0.40861E+02 
  34004.3166     0.41340E+02 
  34036.5788     0.41827E+02 
  34068.8410     0.42321E+02 
  34101.1031     0.42824E+02 
  34133.3653     0.43334E+02 
  34165.6274     0.43852E+02 
  34197.8896     0.44378E+02 
  34230.1518     0.44913E+02 
  34262.4139     0.45457E+02 
  34294.6761     0.46009E+02 
  34326.9382     0.46570E+02 
  34359.2004     0.47140E+02 
  34391.4626     0.47720E+02 
  34423.7247     0.48309E+02 
  34455.9869     0.48908E+02 
  34488.2490     0.49517E+02 
  34520.5112     0.50136E+02 
  34552.7734     0.50765E+02 
  34585.0355     0.51405E+02 
  34617.2977     0.52056E+02 
  34649.5598     0.52718E+02 
  34681.8220     0.53391E+02 
  34714.0842     0.54076E+02 
  34746.3463     0.54772E+02 
  34778.6085     0.55481E+02 
  34810.8706     0.56202E+02 
  34843.1328     0.56936E+02 
  34875.3950     0.57683E+02 
  34907.6571     0.58443E+02 
  34939.9193     0.59217E+02 
  34972.1814     0.60004E+02 
  35004.4436     0.60806E+02 
  35036.7058     0.61622E+02 
  35068.9679     0.62453E+02 
  35101.2301     0.63300E+02 
  35133.4922     0.64162E+02 
  35165.7544     0.65040E+02 
  35198.0166     0.65934E+02 
  35230.2787     0.66846E+02 
  35262.5409     0.67774E+02 
  35294.8030     0.68720E+02 
  35327.0652     0.69684E+02 
  35359.3274     0.70667E+02 
  35391.5895     0.71669E+02 
  35423.8517     0.72690E+02 
  35456.1138     0.73731E+02 
  35488.3760     0.74793E+02 
  35520.6382     0.75876E+02 
  35552.9003     0.76980E+02 
  35585.1625     0.78107E+02 
  35617.4246     0.79256E+02 
  35649.6868     0.80429E+02 
  35681.9490     0.81626E+02 
  35714.2111     0.82847E+02 
  35746.4733     0.84094E+02 
  35778.7354     0.85367E+02 
  35810.9976     0.86666E+02 
  35843.2598     0.87993E+02 
  35875.5219     0.89348E+02 
  35907.7841     0.90733E+02 
  35940.0462     0.92147E+02 
  35972.3084     0.93592E+02 
  36004.5706     0.95069E+02 
  36036.8327     0.96578E+02 
  36069.0949     0.98121E+02 
  36101.3570     0.99698E+02 
  36133.6192     0.10131E+03 
  36165.8814     0.10296E+03 
  36198.1435     0.10465E+03 
  36230.4057     0.10637E+03 
  36262.6678     0.10814E+03 
  36294.9300     0.10995E+03 
  36327.1922     0.11180E+03 
  36359.4543     0.11369E+03 
  36391.7165     0.11563E+03 
  36423.9786     0.11762E+03 
  36456.2408     0.11966E+03 
  36488.5030     0.12174E+03 
  36520.7651     0.12388E+03 
  36553.0273     0.12607E+03 
  36585.2894     0.12831E+03 
  36617.5516     0.13062E+03 
  36649.8138     0.13298E+03 
  36682.0759     0.13540E+03 
  36714.3381     0.13789E+03 
  36746.6002     0.14044E+03 
  36778.8624     0.14306E+03 
  36811.1246     0.14575E+03 
  36843.3867     0.14851E+03 
  36875.6489     0.15135E+03 
  36907.9110     0.15426E+03 
  36940.1732     0.15726E+03 
  36972.4354     0.16034E+03 
  37004.6975     0.16351E+03 
  37036.9597     0.16677E+03 
  37069.2218     0.17012E+03 
  37101.4840     0.17357E+03 
  37133.7462     0.17713E+03 
  37166.0083     0.18079E+03 
  37198.2705     0.18456E+03 
  37230.5326     0.18844E+03 
  37262.7948     0.19245E+03 
  37295.0570     0.19658E+03 
  37327.3191     0.20084E+03 
  37359.5813     0.20523E+03 
  37391.8434     0.20977E+03 
  37424.1056     0.21446E+03 
  37456.3678     0.21930E+03 
  37488.6299     0.22430E+03 
  37520.8921     0.22947E+03 
  37553.1542     0.23482E+03 
  37585.4164     0.24035E+03 
  37617.6786     0.24607E+03 
  37649.9407     0.25201E+03 
  37682.2029     0.25815E+03 
  37714.4650     0.26452E+03 
  37746.7272     0.27112E+03 
  37778.9894     0.27797E+03 
  37811.2515     0.28508E+03 
  37843.5137     0.29246E+03 
  37875.7758     0.30013E+03 
  37908.0380     0.30811E+03 
  37940.3002     0.31641E+03 
  37972.5623     0.32504E+03 
  38004.8245     0.33404E+03 
  38037.0866     0.34341E+03 
  38069.3488     0.35318E+03 
  38101.6110     0.36337E+03 
  38133.8731     0.37402E+03 
  38166.1353     0.38514E+03 
  38198.3974     0.39677E+03 
  38230.6596     0.40894E+03 
  38262.9218     0.42169E+03 
  38295.1839     0.43504E+03 
  38327.4461     0.44905E+03 
  38359.7082     0.46376E+03 
  38391.9704     0.47922E+03 
  38424.2326     0.49547E+03 
  38456.4947     0.51258E+03 
  38488.7569     0.53061E+03 
  38521.0190     0.54963E+03 
  38553.2812     0.56972E+03 
  38585.5434     0.59096E+03 
  38617.8055     0.61343E+03 
  38650.0677     0.63724E+03 
  38682.3298     0.66251E+03 
  38714.5920     0.68935E+03 
  38746.8542     0.71791E+03 
  38779.1163     0.74832E+03 
  38811.3785     0.78077E+03 
  38843.6406     0.81544E+03 
  38875.9028     0.85253E+03 
  38908.1650     0.89228E+03 
  38940.4271     0.93494E+03 
  38972.6893     0.98082E+03 
  39004.9514     0.10302E+04 
  39037.2136     0.10835E+04 
  39069.4758     0.11411E+04 
  39101.7379     0.12035E+04 
  39134.0001     0.12711E+04 
  39166.2622     0.13445E+04 
  39198.5244     0.14243E+04 
  39230.7866     0.15112E+04 
  39263.0487     0.16059E+04 
  39295.3109     0.17092E+04 
  39327.5730     0.18217E+04 
  39359.8352     0.19442E+04 
  39392.0974     0.20774E+04 
  39424.3595     0.22215E+04 
  39456.6217     0.23767E+04 
  39488.8838     0.25422E+04 
  39521.1460     0.27166E+04 
  39553.4082     0.28972E+04 
  39585.6703     0.30794E+04 
  39617.9325     0.32570E+04 
  39650.1946     0.34214E+04 
  39682.4568     0.35628E+04 
  39714.7190     0.36706E+04 
  39746.9811     0.37358E+04 
  39779.2433     0.37529E+04 
  39811.5054     0.37220E+04 
  39843.7676     0.36496E+04 
  39876.0298     0.35475E+04 
  39908.2919     0.34310E+04 
  39940.5541     0.33153E+04 
  39972.8162     0.32135E+04 
  40005.0784     0.31352E+04 
  40037.3406     0.30852E+04 
  40069.6027     0.30647E+04 
  40101.8649     0.30713E+04 
  40134.1270     0.31004E+04 
  40166.3892     0.31457E+04 
  40198.6514     0.32005E+04 
  40230.9135     0.32583E+04 
  40263.1757     0.33139E+04 
  40295.4378     0.33633E+04 
  40327.7000     0.34042E+04 
  40359.9622     0.34357E+04 
  40392.2243     0.34586E+04 
  40424.4865     0.34745E+04 
  40456.7486     0.34858E+04 
  40489.0108     0.34950E+04 
  40521.2730     0.35039E+04 
  40553.5351     0.35141E+04 
  40585.7973     0.35265E+04 
  40618.0594     0.35419E+04 
  40650.3216     0.35615E+04 
  40682.5838     0.35866E+04 
  40714.8459     0.36187E+04 
  40747.1081     0.36591E+04 
  40779.3702     0.37084E+04 
  40811.6324     0.37665E+04 
  40843.8946     0.38320E+04 
  40876.1567     0.39024E+04 
  40908.4189     0.39740E+04 
  40940.6810     0.40417E+04 
  40972.9432     0.40993E+04 
  41005.2054     0.41397E+04 
  41037.4675     0.41565E+04 
  41069.7297     0.41442E+04 
  41101.9918     0.41002E+04 
  41134.2540     0.40256E+04 
  41166.5162     0.39263E+04 
  41198.7783     0.38129E+04 
  41231.0405     0.37005E+04 
  41263.3026     0.36062E+04 
  41295.5648     0.35464E+04 
  41327.8270     0.35334E+04 
  41360.0891     0.35734E+04 
  41392.3513     0.36654E+04 
  41424.6134     0.38019E+04 
  41456.8756     0.39702E+04 
  41489.1378     0.41540E+04 
  41521.3999     0.43354E+04 
  41553.6621     0.44976E+04 
  41585.9242     0.46264E+04 
  41618.1864     0.47133E+04 
  41650.4486     0.47558E+04 
  41682.7107     0.47571E+04 
  41714.9729     0.47254E+04 
  41747.2350     0.46714E+04 
  41779.4972     0.46065E+04 
  41811.7594     0.45413E+04 
  41844.0215     0.44846E+04 
  41876.2837     0.44424E+04 
  41908.5458     0.44182E+04 
  41940.8080     0.44127E+04 
  41973.0702     0.44244E+04 
  42005.3323     0.44509E+04 
  42037.5945     0.44896E+04 
  42069.8566     0.45375E+04 
  42102.1188     0.45925E+04 
  42134.3810     0.46521E+04 
  42166.6431     0.47140E+04 
  42198.9053     0.47759E+04 
  42231.1674     0.48352E+04 
  42263.4296     0.48895E+04 
  42295.6918     0.49361E+04 
  42327.9539     0.49723E+04 
  42360.2161     0.49952E+04 
  42392.4782     0.50020E+04 
  42424.7404     0.49910E+04 
  42457.0026     0.49616E+04 
  42489.2647     0.49152E+04 
  42521.5269     0.48544E+04 
  42553.7890     0.47835E+04 
  42586.0512     0.47075E+04 
  42618.3134     0.46325E+04 
  42650.5755     0.45647E+04 
  42682.8377     0.45103E+04 
  42715.0998     0.44737E+04 
  42747.3620     0.44566E+04 
  42779.6242     0.44570E+04 
  42811.8863     0.44696E+04 
  42844.1485     0.44866E+04 
  42876.4106     0.44984E+04 
  42908.6728     0.44957E+04 
  42940.9350     0.44710E+04 
  42973.1971     0.44201E+04 
  43005.4593     0.43433E+04 
  43037.7214     0.42451E+04 
  43069.9836     0.41336E+04 
  43102.2458     0.40191E+04 
  43134.5079     0.39113E+04 
  43166.7701     0.38186E+04 
  43199.0322     0.37464E+04 
  43231.2944     0.36971E+04 
  43263.5566     0.36702E+04 
  43295.8187     0.36627E+04 
  43328.0809     0.36695E+04 
  43360.3430     0.36847E+04 
  43392.6052     0.37023E+04 
  43424.8674     0.37172E+04 
  43457.1295     0.37259E+04 
  43489.3917     0.37267E+04 
  43521.6538     0.37195E+04 
  43553.9160     0.37054E+04 
  43586.1782     0.36862E+04 
  43618.4403     0.36639E+04 
  43650.7025     0.36402E+04 
  43682.9646     0.36167E+04 
  43715.2268     0.35942E+04 
  43747.4890     0.35727E+04 
  43779.7511     0.35523E+04 
  43812.0133     0.35325E+04 
  43844.2754     0.35133E+04 
  43876.5376     0.34947E+04 
  43908.7998     0.34773E+04 
  43941.0619     0.34615E+04 
  43973.3241     0.34480E+04 
  44005.5862     0.34370E+04 
  44037.8484     0.34287E+04 
  44070.1106     0.34232E+04 
  44102.3727     0.34198E+04 
  44134.6349     0.34179E+04 
  44166.8970     0.34159E+04 
  44199.1592     0.34121E+04 
  44231.4214     0.34045E+04 
  44263.6835     0.33913E+04 
  44295.9457     0.33710E+04 
  44328.2078     0.33427E+04 
  44360.4700     0.33062E+04 
  44392.7322     0.32623E+04 
  44424.9943     0.32125E+04 
  44457.2565     0.31596E+04 
  44489.5186     0.31065E+04 
  44521.7808     0.30564E+04 
  44554.0430     0.30116E+04 
  44586.3051     0.29733E+04 
  44618.5673     0.29417E+04 
  44650.8294     0.29154E+04 
  44683.0916     0.28923E+04 
  44715.3538     0.28698E+04 
  44747.6159     0.28453E+04 
  44779.8781     0.28166E+04 
  44812.1402     0.27826E+04 
  44844.4024     0.27433E+04 
  44876.6646     0.26995E+04 
  44908.9267     0.26529E+04 
  44941.1889     0.26053E+04 
  44973.4510     0.25586E+04 
  45005.7132     0.25143E+04 
  45037.9754     0.24735E+04 
  45070.2375     0.24367E+04 
  45102.4997     0.24039E+04 
  45134.7618     0.23748E+04 
  45167.0240     0.23484E+04 
  45199.2862     0.23239E+04 
  45231.5483     0.23004E+04 
  45263.8105     0.22773E+04 
  45296.0726     0.22542E+04 
  45328.3348     0.22310E+04 
  45360.5970     0.22078E+04 
  45392.8591     0.21847E+04 
  45425.1213     0.21620E+04 
  45457.3834     0.21398E+04 
  45489.6456     0.21181E+04 
  45521.9078     0.20971E+04 
  45554.1699     0.20764E+04 
  45586.4321     0.20559E+04 
  45618.6942     0.20353E+04 
  45650.9564     0.20145E+04 
  45683.2186     0.19933E+04 
  45715.4807     0.19719E+04 
  45747.7429     0.19503E+04 
  45780.0050     0.19286E+04 
  45812.2672     0.19071E+04 
  45844.5294     0.18861E+04 
  45876.7915     0.18656E+04 
  45909.0537     0.18460E+04 
  45941.3158     0.18274E+04 
  45973.5780     0.18096E+04 
  46005.8402     0.17925E+04 
  46038.1023     0.17757E+04 
  46070.3645     0.17588E+04 
  46102.6266     0.17413E+04 
  46134.8888     0.17227E+04 
  46167.1510     0.17028E+04 
  46199.4131     0.16815E+04 
  46231.6753     0.16588E+04 
  46263.9374     0.16352E+04 
  46296.1996     0.16111E+04 
  46328.4618     0.15871E+04 
  46360.7239     0.15637E+04 
  46392.9861     0.15413E+04 
  46425.2482     0.15200E+04 
  46457.5104     0.14998E+04 
  46489.7726     0.14806E+04 
  46522.0347     0.14618E+04 
  46554.2969     0.14433E+04 
  46586.5590     0.14248E+04 
  46618.8212     0.14059E+04 
  46651.0834     0.13866E+04 
  46683.3455     0.13671E+04 
  46715.6077     0.13473E+04 
  46747.8698     0.13275E+04 
  46780.1320     0.13079E+04 
  46812.3942     0.12887E+04 
  46844.6563     0.12701E+04 
  46876.9185     0.12520E+04 
  46909.1806     0.12346E+04 
  46941.4428     0.12178E+04 
  46973.7050     0.12015E+04 
  47005.9671     0.11856E+04 
  47038.2293     0.11701E+04 
  47070.4914     0.11548E+04 
  47102.7536     0.11397E+04 
  47135.0158     0.11249E+04 
  47167.2779     0.11103E+04 
  47199.5401     0.10960E+04 
  47231.8022     0.10819E+04 
  47264.0644     0.10682E+04 
  47296.3266     0.10548E+04 
  47328.5887     0.10417E+04 
  47360.8509     0.10289E+04 
  47393.1130     0.10163E+04 
  47425.3752     0.10039E+04 
  47457.6374     0.99163E+03 
  47489.8995     0.97945E+03 
  47522.1617     0.96733E+03 
  47554.4238     0.95528E+03 
  47586.6860     0.94328E+03 
  47618.9482     0.93137E+03 
  47651.2103     0.91957E+03 
  47683.4725     0.90794E+03 
  47715.7346     0.89651E+03 
  47747.9968     0.88533E+03 
  47780.2590     0.87442E+03 
  47812.5211     0.86375E+03 
  47844.7833     0.85330E+03 
  47877.0454     0.84302E+03 
  47909.3076     0.83283E+03 
  47941.5698     0.82269E+03 
  47973.8319     0.81252E+03 
  48006.0941     0.80232E+03 
  48038.3562     0.79208E+03 
  48070.6184     0.78183E+03 
  48102.8806     0.77163E+03 
  48135.1427     0.76154E+03 
  48167.4049     0.75160E+03 
  48199.6670     0.74185E+03 
  48231.9292     0.73232E+03 
  48264.1914     0.72301E+03 
  48296.4535     0.71390E+03 
  48328.7157     0.70496E+03 
  48360.9778     0.69616E+03 
  48393.2400     0.68749E+03 
  48425.5022     0.67890E+03 
  48457.7643     0.67041E+03 
  48490.0265     0.66200E+03 
  48522.2886     0.65369E+03 
  48554.5508     0.64550E+03 
  48586.8130     0.63743E+03 
  48619.0751     0.62950E+03 
  48651.3373     0.62173E+03 
  48683.5994     0.61412E+03 
  48715.8616     0.60666E+03 
  48748.1238     0.59935E+03 
  48780.3859     0.59219E+03 
  48812.6481     0.58515E+03 
  48844.9102     0.57823E+03 
  48877.1724     0.57143E+03 
  48909.4346     0.56474E+03 
  48941.6967     0.55816E+03 
  48973.9589     0.55169E+03 
  49006.2210     0.54534E+03 
  49038.4832     0.53909E+03 
  49070.7454     0.53296E+03 
  49103.0075     0.52694E+03 
  49135.2697     0.52103E+03 
  49167.5318     0.51523E+03 
  49199.7940     0.50954E+03 
  49232.0562     0.50393E+03 
  49264.3183     0.49842E+03 
  49296.5805     0.49299E+03 
  49328.8426     0.48763E+03 
  49361.1048     0.48234E+03 
  49393.3670     0.47712E+03 
  49425.6291     0.47198E+03 
  49457.8913     0.46690E+03 
  49490.1534     0.46190E+03 
  49522.4156     0.45698E+03 
  49554.6778     0.45215E+03 
  49586.9399     0.44740E+03 
  49619.2021     0.44274E+03 
  49651.4642     0.43815E+03 
  49683.7264     0.43364E+03 
  49715.9886     0.42920E+03 
  49748.2507     0.42482E+03 
  49780.5129     0.42049E+03 
  49812.7750     0.41622E+03 
  49845.0372     0.41200E+03 
  49877.2994     0.40784E+03 
  49909.5615     0.40373E+03 
  49941.8237     0.39969E+03 
  49974.0858     0.39571E+03 
  50006.3480     0.39180E+03 
  50038.6102     0.38796E+03 
  50070.8723     0.38419E+03 
  50103.1345     0.38047E+03 
  50135.3966     0.37683E+03 
  50167.6588     0.37324E+03 
  50199.9210     0.36970E+03 
  50232.1831     0.36623E+03 
  50264.4453     0.36280E+03 
  50296.7074     0.35943E+03 
  50328.9696     0.35611E+03 
  50361.2318     0.35285E+03 
  50393.4939     0.34964E+03 
  50425.7561     0.34648E+03 
  50458.0182     0.34338E+03 
  50490.2804     0.34034E+03 
  50522.5426     0.33734E+03 
  50554.8047     0.33439E+03 
  50587.0669     0.33150E+03 
  50619.3290     0.32865E+03 
  50651.5912     0.32585E+03 
  50683.8534     0.32309E+03 
  50716.1155     0.32038E+03 
  50748.3777     0.31771E+03 
  50780.6398     0.31509E+03 
  50812.9020     0.31251E+03 
  50845.1642     0.30997E+03 
  50877.4263     0.30747E+03 
  50909.6885     0.30501E+03 
  50941.9506     0.30260E+03 
  50974.2128     0.30022E+03 
  51006.4750     0.29788E+03 
  51038.7371     0.29558E+03 
  51070.9993     0.29331E+03 
  51103.2614     0.29108E+03 
  51135.5236     0.28888E+03 
  51167.7858     0.28672E+03 
  51200.0479     0.28459E+03 
  51232.3101     0.28249E+03 
  51264.5722     0.28042E+03 
  51296.8344     0.27839E+03 
  51329.0966     0.27638E+03 
  51361.3587     0.27441E+03 
  51393.6209     0.27247E+03 
  51425.8830     0.27056E+03 
  51458.1452     0.26868E+03 
  51490.4074     0.26683E+03 
  51522.6695     0.26501E+03 
  51554.9317     0.26321E+03 
  51587.1938     0.26144E+03 
  51619.4560     0.25970E+03 
  51651.7182     0.25798E+03 
  51683.9803     0.25629E+03 
  51716.2425     0.25463E+03 
  51748.5046     0.25299E+03 
  51780.7668     0.25137E+03 
  51813.0290     0.24978E+03 
  51845.2911     0.24822E+03 
  51877.5533     0.24668E+03 
  51909.8154     0.24516E+03 
  51942.0776     0.24367E+03 
  51974.3398     0.24220E+03 
  52006.6019     0.24075E+03 
  52038.8641     0.23932E+03 
  52071.1262     0.23792E+03 
  52103.3884     0.23653E+03 
  52135.6506     0.23517E+03 
  52167.9127     0.23383E+03 
  52200.1749     0.23251E+03 
  52232.4370     0.23121E+03 
  52264.6992     0.22992E+03 
  52296.9614     0.22866E+03 
  52329.2235     0.22742E+03 
  52361.4857     0.22620E+03 
  52393.7478     0.22499E+03 
  52426.0100     0.22380E+03 
  52458.2722     0.22263E+03 
  52490.5343     0.22148E+03 
  52522.7965     0.22034E+03 
  52555.0586     0.21922E+03 
  52587.3208     0.21812E+03 
  52619.5830     0.21704E+03 
  52651.8451     0.21597E+03 
  52684.1073     0.21491E+03 
  52716.3694     0.21387E+03 
  52748.6316     0.21285E+03 
  52780.8938     0.21184E+03 
  52813.1559     0.21085E+03 
  52845.4181     0.20987E+03 
  52877.6802     0.20890E+03 
  52909.9424     0.20795E+03 
  52942.2046     0.20701E+03 
  52974.4667     0.20609E+03 
  53006.7289     0.20518E+03 
  53038.9910     0.20428E+03 
  53071.2532     0.20340E+03 
  53103.5154     0.20252E+03 
  53135.7775     0.20166E+03 
  53168.0397     0.20082E+03 
  53200.3018     0.19998E+03 
  53232.5640     0.19916E+03 
  53264.8262     0.19834E+03 
  53297.0883     0.19754E+03 
  53329.3505     0.19676E+03 
  53361.6126     0.19598E+03 
  53393.8748     0.19521E+03 
  53426.1370     0.19446E+03 
  53458.3991     0.19371E+03 
  53490.6613     0.19298E+03 
  53522.9234     0.19225E+03 
  53555.1856     0.19154E+03 
  53587.4478     0.19083E+03 
  53619.7099     0.19014E+03 
  53651.9721     0.18946E+03 
  53684.2342     0.18878E+03 
  53716.4964     0.18812E+03 
  53748.7586     0.18746E+03 
  53781.0207     0.18681E+03 
  53813.2829     0.18618E+03 
  53845.5450     0.18555E+03 
  53877.8072     0.18493E+03 
  53910.0694     0.18432E+03 
  53942.3315     0.18372E+03 
  53974.5937     0.18312E+03 
  54006.8558     0.18254E+03 
  54039.1180     0.18196E+03 
  54071.3802     0.18139E+03 
  54103.6423     0.18083E+03 
  54135.9045     0.18028E+03 
  54168.1666     0.17973E+03 
  54200.4288     0.17920E+03 
  54232.6910     0.17867E+03 
  54264.9531     0.17814E+03 
  54297.2153     0.17763E+03 
  54329.4774     0.17712E+03 
  54361.7396     0.17662E+03 
  54394.0018     0.17612E+03 
  54426.2639     0.17564E+03 
  54458.5261     0.17516E+03 
  54490.7882     0.17468E+03 
  54523.0504     0.17422E+03 
  54555.3126     0.17376E+03 
  54587.5747     0.17330E+03 
  54619.8369     0.17286E+03 
  54652.0990     0.17242E+03 
  54684.3612     0.17198E+03 
  54716.6234     0.17155E+03 
  54748.8855     0.17113E+03 
  54781.1477     0.17071E+03 
  54813.4098     0.17030E+03 
  54845.6720     0.16990E+03 
  54877.9342     0.16950E+03 
  54910.1963     0.16910E+03 
  54942.4585     0.16872E+03 
  54974.7206     0.16834E+03 
  55006.9828     0.16796E+03 
  55039.2450     0.16759E+03 
  55071.5071     0.16722E+03 
  55103.7693     0.16686E+03 
  55136.0314     0.16651E+03 
  55168.2936     0.16616E+03 
  55200.5558     0.16581E+03 
  55232.8179     0.16547E+03 
  55265.0801     0.16514E+03 
  55297.3422     0.16481E+03 
  55329.6044     0.16448E+03 
  55361.8666     0.16416E+03 
  55394.1287     0.16384E+03 
  55426.3909     0.16353E+03 
  55458.6530     0.16323E+03 
  55490.9152     0.16293E+03 
  55523.1774     0.16263E+03 
  55555.4395     0.16234E+03 
  55587.7017     0.16205E+03 
  55619.9638     0.16176E+03 
  55652.2260     0.16149E+03 
  55684.4882     0.16121E+03 
  55716.7503     0.16094E+03 
  55749.0125     0.16067E+03 
  55781.2746     0.16041E+03 
  55813.5368     0.16015E+03 
  55845.7990     0.15990E+03 
  55878.0611     0.15965E+03 
  55910.3233     0.15940E+03 
  55942.5854     0.15916E+03 
  55974.8476     0.15892E+03 
  56007.1098     0.15869E+03 
  56039.3719     0.15846E+03 
  56071.6341     0.15823E+03 
  56103.8962     0.15801E+03 
  56136.1584     0.15779E+03 
  56168.4206     0.15758E+03 
  56200.6827     0.15737E+03 
  56232.9449     0.15716E+03 
  56265.2070     0.15695E+03 
  56297.4692     0.15675E+03 
  56329.7314     0.15656E+03 
  56361.9935     0.15636E+03 
  56394.2557     0.15617E+03 
  56426.5178     0.15599E+03 
  56458.7800     0.15580E+03 
  56491.0422     0.15562E+03 
  56523.3043     0.15545E+03 
  56555.5665     0.15527E+03 
  56587.8286     0.15510E+03 
  56620.0908     0.15494E+03 
  56652.3530     0.15477E+03 
  56684.6151     0.15461E+03 
  56716.8773     0.15446E+03 
  56749.1394     0.15430E+03 
  56781.4016     0.15415E+03 
  56813.6638     0.15400E+03 
  56845.9259     0.15386E+03 
  56878.1881     0.15372E+03 
  56910.4502     0.15358E+03 
  56942.7124     0.15345E+03 
  56974.9746     0.15331E+03 
  57007.2367     0.15318E+03 
  57039.4989     0.15306E+03 
  57071.7610     0.15293E+03 
  57104.0232     0.15281E+03 
  57136.2854     0.15270E+03 
  57168.5475     0.15258E+03 
  57200.8097     0.15247E+03 
  57233.0718     0.15236E+03 
  57265.3340     0.15226E+03 
  57297.5962     0.15215E+03 
  57329.8583     0.15205E+03 
  57362.1205     0.15195E+03 
  57394.3826     0.15186E+03 
  57426.6448     0.15177E+03 
  57458.9070     0.15168E+03 
  57491.1691     0.15159E+03 
  57523.4313     0.15151E+03 
  57555.6934     0.15143E+03 
  57587.9556     0.15135E+03 
  57620.2178     0.15127E+03 
  57652.4799     0.15120E+03 
  57684.7421     0.15113E+03 
  57717.0042     0.15106E+03 
  57749.2664     0.15099E+03 
  57781.5286     0.15093E+03 
  57813.7907     0.15087E+03 
  57846.0529     0.15081E+03 
  57878.3150     0.15075E+03 
  57910.5772     0.15070E+03 
  57942.8394     0.15065E+03 
  57975.1015     0.15060E+03 
  58007.3637     0.15056E+03 
  58039.6258     0.15051E+03 
  58071.8880     0.15047E+03 
  58104.1502     0.15043E+03 
  58136.4123     0.15040E+03 
  58168.6745     0.15036E+03 
  58200.9366     0.15033E+03 
  58233.1988     0.15030E+03 
  58265.4610     0.15028E+03 
  58297.7231     0.15025E+03 
  58329.9853     0.15023E+03 
  58362.2474     0.15021E+03 
  58394.5096     0.15020E+03 
  58426.7718     0.15018E+03 
  58459.0339     0.15017E+03 
  58491.2961     0.15016E+03 
  58523.5582     0.15015E+03 
  58555.8204     0.15015E+03 
  58588.0826     0.15014E+03 
  58620.3447     0.15014E+03 
  58652.6069     0.15014E+03 
  58684.8690     0.15015E+03 
  58717.1312     0.15015E+03 
  58749.3934     0.15016E+03 
  58781.6555     0.15017E+03 
  58813.9177     0.15018E+03 
  58846.1798     0.15020E+03 
  58878.4420     0.15022E+03 
  58910.7042     0.15024E+03 
  58942.9663     0.15026E+03 
  58975.2285     0.15028E+03 
  59007.4906     0.15031E+03 
  59039.7528     0.15034E+03 
  59072.0150     0.15037E+03 
  59104.2771     0.15040E+03 
  59136.5393     0.15043E+03 
  59168.8014     0.15047E+03 
  59201.0636     0.15051E+03 
  59233.3258     0.15055E+03 
  59265.5879     0.15059E+03 
  59297.8501     0.15064E+03 
  59330.1122     0.15069E+03 
  59362.3744     0.15074E+03 
  59394.6366     0.15079E+03 
  59426.8987     0.15084E+03 
  59459.1609     0.15090E+03 
  59491.4230     0.15096E+03 
  59523.6852     0.15102E+03 
  59555.9474     0.15108E+03 
  59588.2095     0.15115E+03 
  59620.4717     0.15121E+03 
  59652.7338     0.15128E+03 
  59684.9960     0.15135E+03 
  59717.2582     0.15143E+03 
  59749.5203     0.15150E+03 
  59781.7825     0.15158E+03 
  59814.0446     0.15166E+03 
  59846.3068     0.15174E+03 
  59878.5690     0.15182E+03 
  59910.8311     0.15191E+03 
  59943.0933     0.15200E+03 
  59975.3554     0.15209E+03 
  60007.6176     0.15218E+03 
  60039.8798     0.15227E+03 
  60072.1419     0.15237E+03 
  60104.4041     0.15247E+03 
  60136.6662     0.15257E+03 
  60168.9284     0.15267E+03 
  60201.1906     0.15278E+03 
  60233.4527     0.15288E+03 
  60265.7149     0.15299E+03 
  60297.9770     0.15310E+03 
  60330.2392     0.15322E+03 
  60362.5014     0.15333E+03 
  60394.7635     0.15345E+03 
  60427.0257     0.15357E+03 
  60459.2878     0.15369E+03 
  60491.5500     0.15381E+03 
  60523.8122     0.15394E+03 
  60556.0743     0.15407E+03 
  60588.3365     0.15419E+03 
  60620.5986     0.15433E+03 
  60652.8608     0.15446E+03 
  60685.1230     0.15460E+03 
  60717.3851     0.15474E+03 
  60749.6473     0.15488E+03 
  60781.9094     0.15502E+03 
  60814.1716     0.15516E+03 
  60846.4338     0.15531E+03 
  60878.6959     0.15546E+03 
  60910.9581     0.15561E+03 
  60943.2202     0.15576E+03 
  60975.4824     0.15592E+03 
  61007.7446     0.15607E+03 
  61040.0067     0.15623E+03 
  61072.2689     0.15639E+03 
  61104.5310     0.15656E+03 
  61136.7932     0.15672E+03 
  61169.0554     0.15689E+03 
  61201.3175     0.15706E+03 
  61233.5797     0.15723E+03 
  61265.8418     0.15741E+03 
  61298.1040     0.15759E+03 
  61330.3662     0.15776E+03 
  61362.6283     0.15794E+03 
  61394.8905     0.15813E+03 
  61427.1526     0.15831E+03 
  61459.4148     0.15850E+03 
  61491.6770     0.15869E+03 
  61523.9391     0.15888E+03 
  61556.2013     0.15908E+03 
  61588.4634     0.15927E+03 
  61620.7256     0.15947E+03 
  61652.9878     0.15967E+03 
  61685.2499     0.15987E+03 
  61717.5121     0.16008E+03 
  61749.7742     0.16028E+03 
  61782.0364     0.16049E+03 
  61814.2986     0.16071E+03 
  61846.5607     0.16092E+03 
  61878.8229     0.16114E+03 
  61911.0850     0.16135E+03 
  61943.3472     0.16157E+03 
  61975.6094     0.16180E+03 
  62007.8715     0.16202E+03 
  62040.1337     0.16225E+03 
  62072.3958     0.16248E+03 
  62104.6580     0.16271E+03 
  62136.9202     0.16295E+03 
  62169.1823     0.16318E+03 
  62201.4445     0.16342E+03 
  62233.7066     0.16366E+03 
  62265.9688     0.16391E+03 
  62298.2310     0.16415E+03 
  62330.4931     0.16440E+03 
  62362.7553     0.16465E+03 
  62395.0174     0.16490E+03 
  62427.2796     0.16516E+03 
  62459.5418     0.16542E+03 
  62491.8039     0.16568E+03 
  62524.0661     0.16594E+03 
  62556.3282     0.16620E+03 
  62588.5904     0.16647E+03 
  62620.8526     0.16674E+03 
  62653.1147     0.16701E+03 
  62685.3769     0.16729E+03 
  62717.6390     0.16756E+03 
  62749.9012     0.16784E+03 
  62782.1634     0.16812E+03 
  62814.4255     0.16841E+03 
  62846.6877     0.16869E+03 
  62878.9498     0.16898E+03 
  62911.2120     0.16928E+03 
  62943.4742     0.16957E+03 
  62975.7363     0.16987E+03 
  63007.9985     0.17017E+03 
  63040.2606     0.17047E+03 
  63072.5228     0.17077E+03 
  63104.7850     0.17108E+03 
  63137.0471     0.17139E+03 
  63169.3093     0.17170E+03 
  63201.5714     0.17201E+03 
  63233.8336     0.17233E+03 
  63266.0958     0.17265E+03 
  63298.3579     0.17297E+03 
  63330.6201     0.17330E+03 
  63362.8822     0.17363E+03 
  63395.1444     0.17396E+03 
  63427.4066     0.17429E+03 
  63459.6687     0.17463E+03 
  63491.9309     0.17497E+03 
  63524.1930     0.17531E+03 
  63556.4552     0.17565E+03 
  63588.7174     0.17600E+03 
  63620.9795     0.17635E+03 
  63653.2417     0.17670E+03 
  63685.5038     0.17705E+03 
  63717.7660     0.17741E+03 
  63750.0282     0.17777E+03 
  63782.2903     0.17814E+03 
  63814.5525     0.17850E+03 
  63846.8146     0.17887E+03 
  63879.0768     0.17924E+03 
  63911.3390     0.17962E+03 
  63943.6011     0.18000E+03 
  63975.8633     0.18038E+03 
  64008.1254     0.18076E+03 
  64040.3876     0.18115E+03 
  64072.6498     0.18154E+03 
  64104.9119     0.18193E+03 
  64137.1741     0.18232E+03 
  64169.4362     0.18272E+03 
  64201.6984     0.18312E+03 
  64233.9606     0.18353E+03 
  64266.2227     0.18394E+03 
  64298.4849     0.18435E+03 
  64330.7470     0.18476E+03 
  64363.0092     0.18518E+03 
  64395.2714     0.18560E+03 
  64427.5335     0.18602E+03 
  64459.7957     0.18645E+03 
  64492.0578     0.18688E+03 
  64524.3200     0.18731E+03 
  64556.5822     0.18775E+03 
  64588.8443     0.18818E+03 
  64621.1065     0.18863E+03 
  64653.3686     0.18907E+03 
  64685.6308     0.18952E+03 
  64717.8930     0.18997E+03 
  64750.1551     0.19043E+03 
  64782.4173     0.19089E+03 
  64814.6794     0.19135E+03 
  64846.9416     0.19182E+03 
  64879.2038     0.19228E+03 
  64911.4659     0.19276E+03 
  64943.7281     0.19323E+03 
  64975.9902     0.19371E+03 
  65008.2524     0.19420E+03 
  65040.5146     0.19468E+03 
  65072.7767     0.19517E+03 
  65105.0389     0.19566E+03 
  65137.3010     0.19616E+03 
  65169.5632     0.19666E+03 
  65201.8254     0.19717E+03 
  65234.0875     0.19767E+03 
  65266.3497     0.19819E+03 
  65298.6118     0.19870E+03 
  65330.8740     0.19922E+03 
  65363.1362     0.19974E+03 
  65395.3983     0.20027E+03 
  65427.6605     0.20080E+03 
  65459.9226     0.20133E+03 
  65492.1848     0.20187E+03 
  65524.4470     0.20241E+03 
  65556.7091     0.20296E+03 
  65588.9713     0.20351E+03 
  65621.2334     0.20406E+03 
  65653.4956     0.20462E+03 
  65685.7578     0.20518E+03 
  65718.0199     0.20575E+03 
  65750.2821     0.20631E+03 
  65782.5442     0.20689E+03 
  65814.8064     0.20747E+03 
  65847.0686     0.20805E+03 
  65879.3307     0.20863E+03 
  65911.5929     0.20922E+03 
  65943.8550     0.20982E+03 
  65976.1172     0.21042E+03 
  66008.3794     0.21102E+03 
  66040.6415     0.21163E+03 
  66072.9037     0.21224E+03 
  66105.1658     0.21285E+03 
  66137.4280     0.21347E+03 
  66169.6902     0.21410E+03 
  66201.9523     0.21473E+03 
  66234.2145     0.21536E+03 
  66266.4766     0.21600E+03 
  66298.7388     0.21664E+03 
  66331.0010     0.21729E+03 
  66363.2631     0.21794E+03 
  66395.5253     0.21860E+03 
  66427.7874     0.21926E+03 
  66460.0496     0.21992E+03 
  66492.3118     0.22059E+03 
  66524.5739     0.22127E+03 
  66556.8361     0.22195E+03 
  66589.0982     0.22263E+03 
  66621.3604     0.22332E+03 
  66653.6226     0.22402E+03 
  66685.8847     0.22472E+03 
  66718.1469     0.22542E+03 
  66750.4090     0.22613E+03 
  66782.6712     0.22685E+03 
  66814.9334     0.22757E+03 
  66847.1955     0.22829E+03 
  66879.4577     0.22902E+03 
  66911.7198     0.22976E+03 
  66943.9820     0.23050E+03 
  66976.2442     0.23124E+03 
  67008.5063     0.23200E+03 
  67040.7685     0.23275E+03 
  67073.0306     0.23351E+03 
  67105.2928     0.23428E+03 
  67137.5550     0.23506E+03 
  67169.8171     0.23583E+03 
  67202.0793     0.23662E+03 
  67234.3414     0.23741E+03 
  67266.6036     0.23820E+03 
  67298.8658     0.23901E+03 
  67331.1279     0.23981E+03 
  67363.3901     0.24063E+03 
  67395.6522     0.24144E+03 
  67427.9144     0.24227E+03 
  67460.1766     0.24310E+03 
  67492.4387     0.24394E+03 
  67524.7009     0.24478E+03 
  67556.9630     0.24563E+03 
  67589.2252     0.24648E+03 
  67621.4874     0.24734E+03 
  67653.7495     0.24821E+03 
  67686.0117     0.24909E+03 
  67718.2738     0.24997E+03 
  67750.5360     0.25085E+03 
  67782.7982     0.25175E+03 
  67815.0603     0.25265E+03 
  67847.3225     0.25355E+03 
  67879.5846     0.25446E+03 
  67911.8468     0.25538E+03 
  67944.1090     0.25631E+03 
  67976.3711     0.25724E+03 
  68008.6333     0.25818E+03 
  68040.8954     0.25913E+03 
  68073.1576     0.26008E+03 
  68105.4198     0.26104E+03 
  68137.6819     0.26201E+03 
  68169.9441     0.26299E+03 
  68202.2062     0.26397E+03 
  68234.4684     0.26496E+03 
  68266.7306     0.26595E+03 
  68298.9927     0.26696E+03 
  68331.2549     0.26797E+03 
  68363.5170     0.26899E+03 
  68395.7792     0.27002E+03 
  68428.0414     0.27105E+03 
  68460.3035     0.27209E+03 
  68492.5657     0.27314E+03 
  68524.8278     0.27420E+03 
  68557.0900     0.27527E+03 
  68589.3522     0.27634E+03 
  68621.6143     0.27742E+03 
  68653.8765     0.27851E+03 
  68686.1386     0.27961E+03 
  68718.4008     0.28071E+03 
  68750.6630     0.28183E+03 
  68782.9251     0.28295E+03 
  68815.1873     0.28408E+03 
  68847.4494     0.28522E+03 
  68879.7116     0.28637E+03 
  68911.9738     0.28753E+03 
  68944.2359     0.28870E+03 
  68976.4981     0.28987E+03 
  69008.7602     0.29105E+03 
  69041.0224     0.29225E+03 
  69073.2846     0.29345E+03 
  69105.5467     0.29466E+03 
  69137.8089     0.29588E+03 
  69170.0710     0.29711E+03 
  69202.3332     0.29835E+03 
  69234.5954     0.29960E+03 
  69266.8575     0.30086E+03 
  69299.1197     0.30213E+03 
  69331.3818     0.30341E+03 
  69363.6440     0.30470E+03 
  69395.9062     0.30599E+03 
  69428.1683     0.30730E+03 
  69460.4305     0.30862E+03 
  69492.6926     0.30995E+03 
  69524.9548     0.31129E+03 
  69557.2170     0.31264E+03 
  69589.4791     0.31400E+03 
  69621.7413     0.31537E+03 
  69654.0034     0.31675E+03 
  69686.2656     0.31815E+03 
  69718.5278     0.31955E+03 
  69750.7899     0.32097E+03 
  69783.0521     0.32239E+03 
  69815.3142     0.32383E+03 
  69847.5764     0.32528E+03 
  69879.8386     0.32674E+03 
  69912.1007     0.32821E+03 
  69944.3629     0.32970E+03 
  69976.6250     0.33119E+03 
  70008.8872     0.33270E+03 
  70041.1494     0.33422E+03 
  70073.4115     0.33575E+03 
  70105.6737     0.33730E+03 
  70137.9358     0.33886E+03 
  70170.1980     0.34043E+03 
  70202.4602     0.34201E+03 
  70234.7223     0.34360E+03 
  70266.9845     0.34521E+03 
  70299.2466     0.34683E+03 
  70331.5088     0.34847E+03 
  70363.7710     0.35012E+03 
  70396.0331     0.35178E+03 
  70428.2953     0.35346E+03 
  70460.5574     0.35515E+03 
  70492.8196     0.35685E+03 
  70525.0818     0.35857E+03 
  70557.3439     0.36030E+03 
  70589.6061     0.36205E+03 
  70621.8682     0.36381E+03 
  70654.1304     0.36558E+03 
  70686.3926     0.36738E+03 
  70718.6547     0.36918E+03 
  70750.9169     0.37100E+03 
  70783.1790     0.37284E+03 
  70815.4412     0.37469E+03 
  70847.7034     0.37656E+03 
  70879.9655     0.37844E+03 
  70912.2277     0.38034E+03 
  70944.4898     0.38226E+03 
  70976.7520     0.38419E+03 
  71009.0142     0.38614E+03 
  71041.2763     0.38810E+03 
  71073.5385     0.39009E+03 
  71105.8006     0.39209E+03 
  71138.0628     0.39410E+03 
  71170.3250     0.39614E+03 
  71202.5871     0.39819E+03 
  71234.8493     0.40026E+03 
  71267.1114     0.40235E+03 
  71299.3736     0.40445E+03 
  71331.6358     0.40658E+03 
  71363.8979     0.40872E+03 
  71396.1601     0.41088E+03 
  71428.4222     0.41306E+03 
  71460.6844     0.41526E+03 
  71492.9466     0.41748E+03 
  71525.2087     0.41972E+03 
  71557.4709     0.42198E+03 
  71589.7330     0.42426E+03 
  71621.9952     0.42656E+03 
  71654.2574     0.42888E+03 
  71686.5195     0.43123E+03 
  71718.7817     0.43359E+03 
  71751.0438     0.43597E+03 
  71783.3060     0.43838E+03 
  71815.5682     0.44081E+03 
  71847.8303     0.44326E+03 
  71880.0925     0.44573E+03 
  71912.3546     0.44822E+03 
  71944.6168     0.45074E+03 
  71976.8790     0.45328E+03 
  72009.1411     0.45585E+03 
  72041.4033     0.45844E+03 
  72073.6654     0.46105E+03 
  72105.9276     0.46369E+03 
  72138.1898     0.46635E+03 
  72170.4519     0.46903E+03 
  72202.7141     0.47175E+03 
  72234.9762     0.47448E+03 
  72267.2384     0.47725E+03 
  72299.5006     0.48003E+03 
  72331.7627     0.48285E+03 
  72364.0249     0.48569E+03 
  72396.2870     0.48856E+03 
  72428.5492     0.49146E+03 
  72460.8114     0.49438E+03 
  72493.0735     0.49733E+03 
  72525.3357     0.50032E+03 
  72557.5978     0.50333E+03 
  72589.8600     0.50636E+03 
