     4.00000      1.1055184    
     4.00400      1.1164625    
     4.00800      1.1275644    
     4.01200      1.1388274    
     4.01600      1.1502548    
     4.02000      1.1618500    
     4.02400      1.1736164    
     4.02800      1.1855577    
     4.03200      1.1976775    
     4.03600      1.2099797    
     4.04000      1.2224681    
     4.04400      1.2351467    
     4.04800      1.2480196    
     4.05200      1.2610910    
     4.05600      1.2743653    
     4.06000      1.2878470    
     4.06400      1.3015407    
     4.06800      1.3154510    
     4.07200      1.3295828    
     4.07600      1.3439413    
     4.08000      1.3585314    
     4.08400      1.3733586    
     4.08800      1.3884283    
     4.09200      1.4037461    
     4.09600      1.4193178    
     4.10000      1.4351495    
     4.10400      1.4512473    
     4.10800      1.4676176    
     4.11200      1.4842668    
     4.11600      1.5012019    
     4.12000      1.5184298    
     4.12400      1.5359576    
     4.12800      1.5537929    
     4.13200      1.5719434    
     4.13600      1.5904168    
     4.14000      1.6092216    
     4.14400      1.6283661    
     4.14800      1.6478590    
     4.15200      1.6677096    
     4.15600      1.6879270    
     4.16000      1.7085211    
     4.16400      1.7295017    
     4.16800      1.7508795    
     4.17200      1.7726649    
     4.17600      1.7948693    
     4.18000      1.8175041    
     4.18400      1.8405812    
     4.18800      1.8641132    
     4.19200      1.8881127    
     4.19600      1.9125932    
     4.20000      1.9375685    
     4.20400      1.9630529    
     4.20800      1.9890614    
     4.21200      2.0156093    
     4.21600      2.0427129    
     4.22000      2.0703888    
     4.22400      2.0986545    
     4.22800      2.1275281    
     4.23200      2.1570283    
     4.23600      2.1871747    
     4.24000      2.2179880    
     4.24400      2.2494892    
     4.24800      2.2817006    
     4.25200      2.3146453    
     4.25600      2.3483474    
     4.26000      2.3828323    
     4.26400      2.4181261    
     4.26800      2.4542564    
     4.27200      2.4912519    
     4.27600      2.5291426    
     4.28000      2.5679601    
     4.28400      2.6077372    
     4.28800      2.6485084    
     4.29200      2.6903098    
     4.29600      2.7331795    
     4.30000      2.7771570    
     4.30400      2.8222841    
     4.30800      2.8686047    
     4.31200      2.9161649    
     4.31600      2.9650130    
     4.32000      3.0152002    
     4.32400      3.0667800    
     4.32800      3.1198091    
     4.33200      3.1743471    
     4.33600      3.2304570    
     4.34000      3.2882053    
     4.34400      3.3476622    
     4.34800      3.4089019    
     4.35200      3.4720032    
     4.35600      3.5370494    
     4.36000      3.6041287    
     4.36400      3.6733348    
     4.36800      3.7447672    
     4.37200      3.8185317    
     4.37600      3.8947407    
     4.38000      3.9735141    
     4.38400      4.0549796    
     4.38800      4.1392734    
     4.39200      4.2265411    
     4.39600      4.3169382    
     4.40000      4.4106315    
     4.40400      4.5077994    
     4.40800      4.6086333    
     4.41200      4.7133392    
     4.41600      4.8221382    
     4.42000      4.9352687    
     4.42400      5.0529877    
     4.42800      5.1755725    
     4.43200      5.3033233    
     4.43600      5.4365650    
     4.44000      5.5756499    
     4.44400      5.7209608    
     4.44800      5.8729142    
     4.45200      6.0319637    
     4.45600      6.1986049    
     4.46000      6.3733793    
     4.46400      6.5568803    
     4.46800      6.7497592    
     4.47200      6.9527323    
     4.47600      7.1665886    
     4.48000      7.3921995    
     4.48400      7.6305290    
     4.48800      7.8826459    
     4.49200      8.1497383    
     4.49600      8.4331290    
     4.50000      8.7342952    
     4.50400      9.0548896    
     4.50800      9.3967661    
     4.51200      9.7620089    
     4.51600      10.152967    
     4.52000      10.572295    
     4.52400      11.022998    
     4.52800      11.508485    
     4.53200      12.032636    
     4.53600      12.599869    
     4.54000      13.215227    
     4.54400      13.884468    
     4.54800      14.614177    
     4.55200      15.411875    
     4.55600      16.286144    
     4.56000      17.246747    
     4.56400      18.304732    
     4.56800      19.472498    
     4.57200      20.763789    
     4.57600      22.193551    
     4.58000      23.777568    
     4.58400      25.531760    
     4.58800      27.470990    
     4.59200      29.607202    
     4.59600      31.946753    
     4.60000      34.486925    
     4.60400      37.211858    
     4.60800      40.088612    
     4.61200      43.064495    
     4.61600      46.067142    
     4.62000      49.008479    
     4.62400      51.792787    
     4.62800      54.327653    
     4.63200      56.535568    
     4.63600      58.363700    
     4.64000      59.790016    
     4.64400      60.824883    
     4.64800      61.508277    
     4.65200      61.903508    
     4.65600      62.088772    
     4.66000      62.147999    
     4.66400      62.162236    
     4.66800      62.202521    
     4.67200      62.324864    
     4.67600      62.567574    
     4.68000      62.950831    
     4.68400      63.478122    
     4.68800      64.138988    
     4.69200      64.912534    
     4.69600      65.771260    
     4.70000      66.684844    
     4.70400      67.623548    
     4.70800      68.560972    
     4.71200      69.476043    
     4.71600      70.354340    
     4.72000      71.188951    
     4.72400      71.981003    
     4.72800      72.739832    
     4.73200      73.482694    
     4.73600      74.233865    
     4.74000      75.023129    
     4.74400      75.883717    
     4.74800      76.849886    
     4.75200      77.954268    
     4.75600      79.225113    
     4.76000      80.683511    
     4.76400      82.340767    
     4.76800      84.196210    
     4.77200      86.235819    
     4.77600      88.432053    
     4.78000      90.745058    
     4.78400      93.125253    
     4.78800      95.517099    
     4.79200      97.863805    
     4.79600      100.11260    
     4.80000      102.21994    
     4.80400      104.15579    
     4.80800      105.90595    
     4.81200      107.47190    
     4.81600      108.86789    
     4.82000      110.11580    
     4.82400      111.23878    
     4.82800      112.25521    
     4.83200      113.17443    
     4.83600      113.99540    
     4.84000      114.70835    
     4.84400      115.29873    
     4.84800      115.75204    
     4.85200      116.05844    
     4.85600      116.21589    
     4.86000      116.23156    
     4.86400      116.12130    
     4.86800      115.90772    
     4.87200      115.61742    
     4.87600      115.27797    
     4.88000      114.91531    
     4.88400      114.55171    
     4.88800      114.20459    
     4.89200      113.88616    
     4.89600      113.60388    
     4.90000      113.36145    
     4.90400      113.16002    
     4.90800      112.99935    
     4.91200      112.87886    
     4.91600      112.79818    
     4.92000      112.75734    
     4.92400      112.75659    
     4.92800      112.79587    
     4.93200      112.87435    
     4.93600      112.99001    
     4.94000      113.13960    
     4.94400      113.31865    
     4.94800      113.52185    
     4.95200      113.74346    
     4.95600      113.97793    
     4.96000      114.22037    
     4.96400      114.46706    
     4.96800      114.71567    
     4.97200      114.96517    
     4.97600      115.21539    
     4.98000      115.46616    
     4.98400      115.71618    
     4.98800      115.96194    
     4.99200      116.19681    
     4.99600      116.41062    
     5.00000      116.58981    
     5.00400      116.71823    
     5.00800      116.77873    
     5.01200      116.75512    
     5.01600      116.63446    
     5.02000      116.40897    
     5.02400      116.07714    
     5.02800      115.64386    
     5.03200      115.11927    
     5.03600      114.51694    
     5.04000      113.85135    
     5.04400      113.13576    
     5.04800      112.38052    
     5.05200      111.59256    
     5.05600      110.77567    
     5.06000      109.93154    
     5.06400      109.06104    
     5.06800      108.16541    
     5.07200      107.24714    
     5.07600      106.31033    
     5.08000      105.36057    
     5.08400      104.40451    
     5.08800      103.44914    
     5.09200      102.50113    
     5.09600      101.56622    
     5.10000      100.64880    
     5.10400      99.751684    
     5.10800      98.876162    
     5.11200      98.022246    
     5.11600      97.189062    
     5.12000      96.375282    
     5.12400      95.579517    
     5.12800      94.800611    
     5.13200      94.037778    
     5.13600      93.290571    
     5.14000      92.558715    
     5.14400      91.841859    
     5.14800      91.139318    
     5.15200      90.449855    
     5.15600      89.771534    
     5.16000      89.101674    
     5.16400      88.436910    
     5.16800      87.773386    
     5.17200      87.107047    
     5.17600      86.433976    
     5.18000      85.750757    
     5.18400      85.054771    
     5.18800      84.344388    
     5.19200      83.618989    
     5.19600      82.878803    
     5.20000      82.124595    
     5.20400      81.357269    
     5.20800      80.577487    
     5.21200      79.785351    
     5.21600      78.980249    
     5.22000      78.160906    
     5.22400      77.325655    
     5.22800      76.472896    
     5.23200      75.601605    
     5.23600      74.711779    
     5.24000      73.804683    
     5.24400      72.882848    
     5.24800      71.949812    
     5.25200      71.009663    
     5.25600      70.066516    
     5.26000      69.124033    
     5.26400      68.185123    
     5.26800      67.251845    
     5.27200      66.325490    
     5.27600      65.406799    
     5.28000      64.496219    
     5.28400      63.594144    
     5.28800      62.701086    
     5.29200      61.817754    
     5.29600      60.945045    
     5.30000      60.083961    
     5.30400      59.235500    
     5.30800      58.400532    
     5.31200      57.579690    
     5.31600      56.773284    
     5.32000      55.981269    
     5.32400      55.203258    
     5.32800      54.438586    
     5.33200      53.686398    
     5.33600      52.945753    
     5.34000      52.215722    
     5.34400      51.495463    
     5.34800      50.784270    
     5.35200      50.081580    
     5.35600      49.386952    
     5.36000      48.700023    
     5.36400      48.020460    
     5.36800      47.347900    
     5.37200      46.681902    
     5.37600      46.021912    
     5.38000      45.367263    
     5.38400      44.717194    
     5.38800      44.070913    
     5.39200      43.427660    
     5.39600      42.786800    
     5.40000      42.147891    
     5.40400      41.510745    
     5.40800      40.875435    
     5.41200      40.242270    
     5.41600      39.611726    
     5.42000      38.984362    
     5.42400      38.360720    
     5.42800      37.741252    
     5.43200      37.126260    
     5.43600      36.515901    
     5.44000      35.910220    
     5.44400      35.309231    
     5.44800      34.713004    
     5.45200      34.121732    
     5.45600      33.535773    
     5.46000      32.955645    
     5.46400      32.381978    
     5.46800      31.815444    
     5.47200      31.256670    
     5.47600      30.706177    
     5.48000      30.164332    
     5.48400      29.631350    
     5.48800      29.107304    
     5.49200      28.592165    
     5.49600      28.085840    
     5.50000      27.588212    
     5.50400      27.099170    
     5.50800      26.618618    
     5.51200      26.146482    
     5.51600      25.682703    
     5.52000      25.227222    
     5.52400      24.779967    
     5.52800      24.340833    
     5.53200      23.909676    
     5.53600      23.486303    
     5.54000      23.070476    
     5.54400      22.661922    
     5.54800      22.260344    
     5.55200      21.865440    
     5.55600      21.476918    
     5.56000      21.094508    
     5.56400      20.717976    
     5.56800      20.347124    
     5.57200      19.981791    
     5.57600      19.621847    
     5.58000      19.267187    
     5.58400      18.917718    
     5.58800      18.573351    
     5.59200      18.233989    
     5.59600      17.899523    
     5.60000      17.569836    
     5.60400      17.244804    
     5.60800      16.924309    
     5.61200      16.608252    
     5.61600      16.296562    
     5.62000      15.989207    
     5.62400      15.686194    
     5.62800      15.387566    
     5.63200      15.093390    
     5.63600      14.803743    
     5.64000      14.518697    
     5.64400      14.238306    
     5.64800      13.962595    
     5.65200      13.691563    
     5.65600      13.425187    
     5.66000      13.163433    
     5.66400      12.906267    
     5.66800      12.653666    
     5.67200      12.405621    
     5.67600      12.162136    
     5.68000      11.923224    
     5.68400      11.688899    
     5.68800      11.459163    
     5.69200      11.234001    
     5.69600      11.013377    
     5.70000      10.797238    
     5.70400      10.585510    
     5.70800      10.378107    
     5.71200      10.174935    
     5.71600      9.9758994    
     5.72000      9.7809036    
     5.72400      9.5898557    
     5.72800      9.4026677    
     5.73200      9.2192557    
     5.73600      9.0395388    
     5.74000      8.8634376    
     5.74400      8.6908727    
     5.74800      8.5217627    
     5.75200      8.3560244    
     5.75600      8.1935719    
     5.76000      8.0343181    
     5.76400      7.8781757    
     5.76800      7.7250588    
     5.77200      7.5748852    
     5.77600      7.4275778    
     5.78000      7.2830657    
     5.78400      7.1412850    
     5.78800      7.0021792    
     5.79200      6.8656982    
     5.79600      6.7317971    
     5.80000      6.6004353    
     5.80400      6.4715736    
     5.80800      6.3451736    
     5.81200      6.2211961    
     5.81600      6.0996009    
     5.82000      5.9803473    
     5.82400      5.8633950    
     5.82800      5.7487055    
     5.83200      5.6362438    
     5.83600      5.5259791    
     5.84000      5.4178848    
     5.84400      5.3119383    
     5.84800      5.2081196    
     5.85200      5.1064091    
     5.85600      5.0067862    
     5.86000      4.9092277    
     5.86400      4.8137064    
     5.86800      4.7201919    
     5.87200      4.6286509    
     5.87600      4.5390486    
     5.88000      4.4513502    
     5.88400      4.3655215    
     5.88800      4.2815299    
     5.89200      4.1993440    
     5.89600      4.1189334    
     5.90000      4.0402674    
     5.90400      3.9633148    
     5.90800      3.8880429    
     5.91200      3.8144175    
     5.91600      3.7424029    
     5.92000      3.6719625    
     5.92400      3.6030589    
     5.92800      3.5356547    
     5.93200      3.4697130    
     5.93600      3.4051976    
     5.94000      3.3420734    
     5.94400      3.2803064    
     5.94800      3.2198641    
     5.95200      3.1607149    
     5.95600      3.1028284    
     5.96000      3.0461751    
     5.96400      2.9907260    
     5.96800      2.9364530    
     5.97200      2.8833283    
     5.97600      2.8313247    
     5.98000      2.7804156    
     5.98400      2.7305753    
     5.98800      2.6817787    
     5.99200      2.6340020    
     5.99600      2.5872221    
     6.00000      2.5414175    
     6.00400      2.4965676    
     6.00800      2.4526530    
     6.01200      2.4096552    
     6.01600      2.3675564    
     6.02000      2.3263395    
     6.02400      2.2859875    
     6.02800      2.2464835    
     6.03200      2.2078109    
     6.03600      2.1699530    
     6.04000      2.1328933    
     6.04400      2.0966156    
     6.04800      2.0611043    
     6.05200      2.0263442    
     6.05600      1.9923207    
     6.06000      1.9590197    
     6.06400      1.9264274    
     6.06800      1.8945303    
     6.07200      1.8633148    
     6.07600      1.8327673    
     6.08000      1.8028739    
     6.08400      1.7736205    
     6.08800      1.7449931    
     6.09200      1.7169775    
     6.09600      1.6895600    
     6.10000      1.6627268    
     6.10400      1.6364648    
     6.10800      1.6107609    
     6.11200      1.5856025    
     6.11600      1.5609771    
     6.12000      1.5368723    
     6.12400      1.5132760    
     6.12800      1.4901761    
     6.13200      1.4675607    
     6.13600      1.4454180    
     6.14000      1.4237365    
     6.14400      1.4025047    
     6.14800      1.3817116    
     6.15200      1.3613465    
     6.15600      1.3413988    
     6.16000      1.3218585    
     6.16400      1.3027157    
     6.16800      1.2839609    
     6.17200      1.2655849    
     6.17600      1.2475788    
     6.18000      1.2299340    
     6.18400      1.2126420    
     6.18800      1.1956945    
     6.19200      1.1790837    
     6.19600      1.1628017    
     6.20000      1.1468409    
     6.20400      1.1311940    
     6.20800      1.1158538    
     6.21200      1.1008134    
     6.21600      1.0860661    
     6.22000      1.0716052    
     6.22400      1.0574246    
     6.22800      1.0435181    
     6.23200      1.0298798    
     6.23600      1.0165039    
     6.24000      1.0033846    
     6.24400     0.99051641    
     6.24800     0.97789374    
     6.25200     0.96551120    
     6.25600     0.95336345    
     6.26000     0.94144527    
     6.26400     0.92975155    
     6.26800     0.91827730    
     6.27200     0.90701764    
     6.27600     0.89596784    
     6.28000     0.88512324    
     6.28400     0.87447929    
     6.28800     0.86403149    
     6.29200     0.85377544    
     6.29600     0.84370677    
     6.30000     0.83382119    
     6.30400     0.82411446    
     6.30800     0.81458245    
     6.31200     0.80522109    
     6.31600     0.79602643    
     6.32000     0.78699459    
     6.32400     0.77812182    
     6.32800     0.76940443    
     6.33200     0.76083883    
     6.33600     0.75242151    
     6.34000     0.74414905    
     6.34400     0.73601810    
     6.34800     0.72802539    
     6.35200     0.72016772    
     6.35600     0.71244197    
     6.36000     0.70484512    
     6.36400     0.69737421    
     6.36800     0.69002635    
     6.37200     0.68279876    
     6.37600     0.67568871    
     6.38000     0.66869356    
     6.38400     0.66181076    
     6.38800     0.65503779    
     6.39200     0.64837224    
     6.39600     0.64181174    
     6.40000     0.63535401    
     6.40400     0.62899678    
     6.40800     0.62273790    
     6.41200     0.61657522    
     6.41600     0.61050667    
     6.42000     0.60453023    
     6.42400     0.59864392    
     6.42800     0.59284583    
     6.43200     0.58713408    
     6.43600     0.58150684    
     6.44000     0.57596233    
     6.44400     0.57049882    
     6.44800     0.56511462    
     6.45200     0.55980807    
     6.45600     0.55457755    
     6.46000     0.54942148    
     6.46400     0.54433831    
     6.46800     0.53932651    
     6.47200     0.53438461    
     6.47600     0.52951115    
     6.48000     0.52470470    
     6.48400     0.51996388    
     6.48800     0.51528733    
     6.49200     0.51067373    
     6.49600     0.50612179    
     6.50000     0.50163024    
     6.50400     0.49719785    
     6.50800     0.49282340    
     6.51200     0.48850571    
     6.51600     0.48424363    
     6.52000     0.48003601    
     6.52400     0.47588175    
     6.52800     0.47177977    
     6.53200     0.46772902    
     6.53600     0.46372846    
     6.54000     0.45977709    
     6.54400     0.45587394    
     6.54800     0.45201804    
     6.55200     0.44820847    
     6.55600     0.44444431    
     6.56000     0.44072467    
     6.56400     0.43704870    
     6.56800     0.43341553    
     6.57200     0.42982436    
     6.57600     0.42627436    
     6.58000     0.42276476    
     6.58400     0.41929479    
     6.58800     0.41586370    
     6.59200     0.41247077    
     6.59600     0.40911527    
     6.60000     0.40579653    
     6.60400     0.40251385    
     6.60800     0.39926658    
     6.61200     0.39605407    
     6.61600     0.39287569    
     6.62000     0.38973083    
     6.62400     0.38661888    
     6.62800     0.38353926    
     6.63200     0.38049138    
     6.63600     0.37747469    
     6.64000     0.37448864    
     6.64400     0.37153269    
     6.64800     0.36860631    
     6.65200     0.36570900    
     6.65600     0.36284023    
     6.66000     0.35999954    
     6.66400     0.35718643    
     6.66800     0.35440043    
     6.67200     0.35164108    
     6.67600     0.34890793    
     6.68000     0.34620055    
     6.68400     0.34351849    
     6.68800     0.34086133    
     6.69200     0.33822866    
     6.69600     0.33562007    
     6.70000     0.33303517    
     6.70400     0.33047356    
     6.70800     0.32793487    
     6.71200     0.32541871    
     6.71600     0.32292474    
     6.72000     0.32045258    
     6.72400     0.31800188    
     6.72800     0.31557232    
     6.73200     0.31316354    
     6.73600     0.31077522    
     6.74000     0.30840704    
     6.74400     0.30605869    
     6.74800     0.30372984    
     6.75200     0.30142021    
     6.75600     0.29912949    
     6.76000     0.29685739    
     6.76400     0.29460364    
     6.76800     0.29236794    
     6.77200     0.29015004    
     6.77600     0.28794965    
     6.78000     0.28576653    
     6.78400     0.28360040    
     6.78800     0.28145103    
     6.79200     0.27931816    
     6.79600     0.27720156    
     6.80000     0.27510097    
     6.80400     0.27301618    
     6.80800     0.27094696    
     6.81200     0.26889308    
     6.81600     0.26685431    
     6.82000     0.26483046    
     6.82400     0.26282130    
     6.82800     0.26082662    
     6.83200     0.25884623    
     6.83600     0.25687993    
     6.84000     0.25492751    
     6.84400     0.25298879    
     6.84800     0.25106358    
     6.85200     0.24915169    
     6.85600     0.24725294    
     6.86000     0.24536714    
     6.86400     0.24349413    
     6.86800     0.24163374    
     6.87200     0.23978578    
     6.87600     0.23795009    
     6.88000     0.23612652    
     6.88400     0.23431489    
     6.88800     0.23251505    
     6.89200     0.23072684    
     6.89600     0.22895012    
     6.90000     0.22718472    
     6.90400     0.22543050    
     6.90800     0.22368731    
     6.91200     0.22195502    
     6.91600     0.22023348    
     6.92000     0.21852254    
     6.92400     0.21682208    
     6.92800     0.21513196    
     6.93200     0.21345204    
     6.93600     0.21178220    
     6.94000     0.21012231    
     6.94400     0.20847223    
     6.94800     0.20683186    
     6.95200     0.20520106    
     6.95600     0.20357972    
     6.96000     0.20196771    
     6.96400     0.20036492    
     6.96800     0.19877123    
     6.97200     0.19718653    
     6.97600     0.19561071    
     6.98000     0.19404366    
     6.98400     0.19248527    
     6.98800     0.19093544    
     6.99200     0.18939405    
     6.99600     0.18786101    
     7.00000     0.18633621    
     7.00400     0.18481955    
     7.00800     0.18331093    
     7.01200     0.18181025    
     7.01600     0.18031742    
     7.02000     0.17883235    
     7.02400     0.17735493    
     7.02800     0.17588508    
     7.03200     0.17442270    
     7.03600     0.17296770    
     7.04000     0.17152000    
     7.04400     0.17007950    
     7.04800     0.16864612    
     7.05200     0.16721978    
     7.05600     0.16580039    
     7.06000     0.16438786    
     7.06400     0.16298211    
     7.06800     0.16158306    
     7.07200     0.16019064    
     7.07600     0.15880476    
     7.08000     0.15742534    
     7.08400     0.15605230    
     7.08800     0.15468558    
     7.09200     0.15332509    
     7.09600     0.15197076    
     7.10000     0.15062251    
     7.10400     0.14928028    
     7.10800     0.14794398    
     7.11200     0.14661355    
     7.11600     0.14528892    
     7.12000     0.14397002    
     7.12400     0.14265678    
     7.12800     0.14134913    
     7.13200     0.14004701    
     7.13600     0.13875034    
     7.14000     0.13745906    
     7.14400     0.13617311    
     7.14800     0.13489242    
     7.15200     0.13361693    
     7.15600     0.13234657    
     7.16000     0.13108129    
     7.16400     0.12982101    
     7.16800     0.12856569    
     7.17200     0.12731525    
     7.17600     0.12606965    
     7.18000     0.12482881    
     7.18400     0.12359268    
     7.18800     0.12236121    
     7.19200     0.12113433    
     7.19600     0.11991200    
     7.20000     0.11869414    
     7.20400     0.11748071    
     7.20800     0.11627165    
     7.21200     0.11506690    
     7.21600     0.11386642    
     7.22000     0.11267014    
     7.22400     0.11147802    
     7.22800     0.11029000    
     7.23200     0.10910604    
     7.23600     0.10792606    
     7.24000     0.10675004    
     7.24400     0.10557790    
     7.24800     0.10440962    
     7.25200     0.10324512    
     7.25600     0.10208438    
     7.26000     0.10092732    
     7.26400     0.99773915E-01
     7.26800     0.98624107E-01
     7.27200     0.97477849E-01
     7.27600     0.96335093E-01
     7.28000     0.95195792E-01
     7.28400     0.94059899E-01
     7.28800     0.92927368E-01
     7.29200     0.91798153E-01
     7.29600     0.90672208E-01
     7.30000     0.89549487E-01
     7.30400     0.88429945E-01
     7.30800     0.87313538E-01
     7.31200     0.86200221E-01
     7.31600     0.85089950E-01
     7.32000     0.83982681E-01
     7.32400     0.82878371E-01
     7.32800     0.81776977E-01
     7.33200     0.80678455E-01
     7.33600     0.79582764E-01
     7.34000     0.78489860E-01
     7.34400     0.77399703E-01
     7.34800     0.76312250E-01
     7.35200     0.75227460E-01
     7.35600     0.74145291E-01
     7.36000     0.73065704E-01
     7.36400     0.71988656E-01
     7.36800     0.70914109E-01
     7.37200     0.69842021E-01
     7.37600     0.68772353E-01
     7.38000     0.67705066E-01
     7.38400     0.66640120E-01
     7.38800     0.65577475E-01
     7.39200     0.64517093E-01
     7.39600     0.63458936E-01
     7.40000     0.62402964E-01
     7.40400     0.61349140E-01
     7.40800     0.60297425E-01
     7.41200     0.59247782E-01
     7.41600     0.58200172E-01
     7.42000     0.57154559E-01
     7.42400     0.56110906E-01
     7.42800     0.55069175E-01
     7.43200     0.54029329E-01
     7.43600     0.52991332E-01
     7.44000     0.51955147E-01
     7.44400     0.50920738E-01
     7.44800     0.49888068E-01
     7.45200     0.48857103E-01
     7.45600     0.47827805E-01
     7.46000     0.46800139E-01
     7.46400     0.45774070E-01
     7.46800     0.44749563E-01
     7.47200     0.43726582E-01
     7.47600     0.42705092E-01
     7.48000     0.41685058E-01
     7.48400     0.40666445E-01
     7.48800     0.39649219E-01
     7.49200     0.38633346E-01
     7.49600     0.37618790E-01
     7.50000     0.36605518E-01
     7.50400     0.35593495E-01
     7.50800     0.34582688E-01
     7.51200     0.33573063E-01
     7.51600     0.32564585E-01
     7.52000     0.31557221E-01
     7.52400     0.30550938E-01
     7.52800     0.29545702E-01
     7.53200     0.28541479E-01
     7.53600     0.27538237E-01
     7.54000     0.26535943E-01
     7.54400     0.25534562E-01
     7.54800     0.24534062E-01
     7.55200     0.23534411E-01
     7.55600     0.22535575E-01
     7.56000     0.21537522E-01
     7.56400     0.20540218E-01
     7.56800     0.19543632E-01
     7.57200     0.18547731E-01
     7.57600     0.17552482E-01
     7.58000     0.16557854E-01
     7.58400     0.15563812E-01
     7.58800     0.14570326E-01
     7.59200     0.13577363E-01
     7.59600     0.12584891E-01
     7.60000     0.11592878E-01
     7.60400     0.10601291E-01
     7.60800     0.96100989E-02
     7.61200     0.86192695E-02
     7.61600     0.76287708E-02
     7.62000     0.66385709E-02
     7.62400     0.56486379E-02
     7.62800     0.46589398E-02
     7.63200     0.36694450E-02
     7.63600     0.26801216E-02
     7.64000     0.16909378E-02
     7.64400     0.70186185E-03
     7.64800    -0.28713798E-03
     7.65200    -0.12760934E-02
     7.65600    -0.22650362E-02
     7.66000    -0.32539980E-02
     7.66400    -0.42430105E-02
     7.66800    -0.52321055E-02
     7.67200    -0.62213146E-02
     7.67600    -0.72106695E-02
     7.68000    -0.82002020E-02
     7.68400    -0.91899437E-02
     7.68800    -0.10179926E-01
     7.69200    -0.11170182E-01
     7.69600    -0.12160741E-01
     7.70000    -0.13151637E-01
     7.70400    -0.14142901E-01
     7.70800    -0.15134565E-01
     7.71200    -0.16126660E-01
     7.71600    -0.17119219E-01
     7.72000    -0.18112273E-01
     7.72400    -0.19105854E-01
     7.72800    -0.20099995E-01
     7.73200    -0.21094726E-01
     7.73600    -0.22090081E-01
     7.74000    -0.23086092E-01
     7.74400    -0.24082790E-01
     7.74800    -0.25080207E-01
     7.75200    -0.26078376E-01
     7.75600    -0.27077330E-01
     7.76000    -0.28077100E-01
     7.76400    -0.29077719E-01
     7.76800    -0.30079219E-01
     7.77200    -0.31081633E-01
     7.77600    -0.32084994E-01
     7.78000    -0.33089334E-01
     7.78400    -0.34094685E-01
     7.78800    -0.35101082E-01
     7.79200    -0.36108556E-01
     7.79600    -0.37117140E-01
     7.80000    -0.38126869E-01
     7.80400    -0.39137774E-01
     7.80800    -0.40149889E-01
     7.81200    -0.41163248E-01
     7.81600    -0.42177883E-01
     7.82000    -0.43193829E-01
     7.82400    -0.44211119E-01
     7.82800    -0.45229786E-01
     7.83200    -0.46249866E-01
     7.83600    -0.47271390E-01
     7.84000    -0.48294395E-01
     7.84400    -0.49318913E-01
     7.84800    -0.50344979E-01
     7.85200    -0.51372628E-01
     7.85600    -0.52401894E-01
     7.86000    -0.53432812E-01
     7.86400    -0.54465416E-01
     7.86800    -0.55499742E-01
     7.87200    -0.56535825E-01
     7.87600    -0.57573699E-01
     7.88000    -0.58613401E-01
     7.88400    -0.59654965E-01
     7.88800    -0.60698428E-01
     7.89200    -0.61743825E-01
     7.89600    -0.62791193E-01
     7.90000    -0.63840567E-01
     7.90400    -0.64891983E-01
     7.90800    -0.65945479E-01
     7.91200    -0.67001091E-01
     7.91600    -0.68058855E-01
     7.92000    -0.69118808E-01
     7.92400    -0.70180989E-01
     7.92800    -0.71245434E-01
     7.93200    -0.72312180E-01
     7.93600    -0.73381266E-01
     7.94000    -0.74452729E-01
     7.94400    -0.75526608E-01
     7.94800    -0.76602940E-01
     7.95200    -0.77681765E-01
     7.95600    -0.78763121E-01
     7.96000    -0.79847047E-01
     7.96400    -0.80933582E-01
     7.96800    -0.82022765E-01
     7.97200    -0.83114637E-01
     7.97600    -0.84209237E-01
     7.98000    -0.85306605E-01
     7.98400    -0.86406781E-01
     7.98800    -0.87509806E-01
     7.99200    -0.88615721E-01
     7.99600    -0.89724567E-01
     8.00000    -0.90836384E-01
     8.00400    -0.91951215E-01
     8.00800    -0.93069102E-01
     8.01200    -0.94190086E-01
     8.01600    -0.95314210E-01
     8.02000    -0.96441516E-01
     8.02400    -0.97572047E-01
     8.02800    -0.98705846E-01
     8.03200    -0.99842958E-01
     8.03600    -0.10098342    
     8.04000    -0.10212729    
     8.04400    -0.10327460    
     8.04800    -0.10442540    
     8.05200    -0.10557973    
     8.05600    -0.10673764    
     8.06000    -0.10789918    
     8.06400    -0.10906438    
     8.06800    -0.11023331    
     8.07200    -0.11140599    
     8.07600    -0.11258248    
     8.08000    -0.11376284    
     8.08400    -0.11494709    
     8.08800    -0.11613530    
     8.09200    -0.11732751    
     8.09600    -0.11852377    
     8.10000    -0.11972413    
     8.10400    -0.12092863    
     8.10800    -0.12213733    
     8.11200    -0.12335029    
     8.11600    -0.12456753    
     8.12000    -0.12578913    
     8.12400    -0.12701513    
     8.12800    -0.12824558    
     8.13200    -0.12948054    
     8.13600    -0.13072005    
     8.14000    -0.13196417    
     8.14400    -0.13321296    
     8.14800    -0.13446646    
     8.15200    -0.13572474    
     8.15600    -0.13698784    
     8.16000    -0.13825583    
     8.16400    -0.13952875    
     8.16800    -0.14080667    
     8.17200    -0.14208963    
     8.17600    -0.14337771    
     8.18000    -0.14467094    
     8.18400    -0.14596941    
     8.18800    -0.14727315    
     8.19200    -0.14858224    
     8.19600    -0.14989672    
     8.20000    -0.15121667    
     8.20400    -0.15254214    
     8.20800    -0.15387319    
     8.21200    -0.15520989    
     8.21600    -0.15655229    
     8.22000    -0.15790047    
     8.22400    -0.15925448    
     8.22800    -0.16061438    
     8.23200    -0.16198025    
     8.23600    -0.16335215    
     8.24000    -0.16473014    
     8.24400    -0.16611429    
     8.24800    -0.16750467    
     8.25200    -0.16890134    
     8.25600    -0.17030438    
     8.26000    -0.17171385    
     8.26400    -0.17312983    
     8.26800    -0.17455238    
     8.27200    -0.17598157    
     8.27600    -0.17741748    
     8.28000    -0.17886018    
     8.28400    -0.18030974    
     8.28800    -0.18176623    
     8.29200    -0.18322974    
     8.29600    -0.18470033    
     8.30000    -0.18617809    
     8.30400    -0.18766308    
     8.30800    -0.18915540    
     8.31200    -0.19065511    
     8.31600    -0.19216229    
     8.32000    -0.19367703    
     8.32400    -0.19519940    
     8.32800    -0.19672950    
     8.33200    -0.19826739    
     8.33600    -0.19981317    
     8.34000    -0.20136692    
     8.34400    -0.20292872    
     8.34800    -0.20449866    
     8.35200    -0.20607683    
     8.35600    -0.20766331    
     8.36000    -0.20925820    
     8.36400    -0.21086159    
     8.36800    -0.21247356    
     8.37200    -0.21409420    
     8.37600    -0.21572362    
     8.38000    -0.21736190    
     8.38400    -0.21900914    
     8.38800    -0.22066543    
     8.39200    -0.22233088    
     8.39600    -0.22400558    
     8.40000    -0.22568962    
     8.40400    -0.22738312    
     8.40800    -0.22908616    
     8.41200    -0.23079886    
     8.41600    -0.23252132    
     8.42000    -0.23425364    
     8.42400    -0.23599592    
     8.42800    -0.23774829    
     8.43200    -0.23951083    
     8.43600    -0.24128367    
     8.44000    -0.24306692    
     8.44400    -0.24486068    
     8.44800    -0.24666507    
     8.45200    -0.24848021    
     8.45600    -0.25030621    
     8.46000    -0.25214319    
     8.46400    -0.25399127    
     8.46800    -0.25585057    
     8.47200    -0.25772121    
     8.47600    -0.25960331    
     8.48000    -0.26149700    
     8.48400    -0.26340241    
     8.48800    -0.26531966    
     8.49200    -0.26724889    
     8.49600    -0.26919022    
     8.50000    -0.27114378    
     8.50400    -0.27310972    
     8.50800    -0.27508816    
     8.51200    -0.27707925    
     8.51600    -0.27908312    
     8.52000    -0.28109991    
     8.52400    -0.28312977    
     8.52800    -0.28517285    
     8.53200    -0.28722928    
     8.53600    -0.28929921    
     8.54000    -0.29138280    
     8.54400    -0.29348020    
     8.54800    -0.29559156    
     8.55200    -0.29771704    
     8.55600    -0.29985679    
     8.56000    -0.30201098    
     8.56400    -0.30417976    
     8.56800    -0.30636331    
     8.57200    -0.30856178    
     8.57600    -0.31077534    
     8.58000    -0.31300418    
     8.58400    -0.31524845    
     8.58800    -0.31750833    
     8.59200    -0.31978400    
     8.59600    -0.32207565    
     8.60000    -0.32438344    
     8.60400    -0.32670757    
     8.60800    -0.32904823    
     8.61200    -0.33140560    
     8.61600    -0.33377987    
     8.62000    -0.33617125    
     8.62400    -0.33857992    
     8.62800    -0.34100608    
     8.63200    -0.34344995    
     8.63600    -0.34591172    
     8.64000    -0.34839160    
     8.64400    -0.35088981    
     8.64800    -0.35340656    
     8.65200    -0.35594206    
     8.65600    -0.35849654    
     8.66000    -0.36107022    
     8.66400    -0.36366332    
     8.66800    -0.36627607    
     8.67200    -0.36890872    
     8.67600    -0.37156148    
     8.68000    -0.37423461    
     8.68400    -0.37692835    
     8.68800    -0.37964294    
     8.69200    -0.38237863    
     8.69600    -0.38513567    
     8.70000    -0.38791433    
     8.70400    -0.39071486    
     8.70800    -0.39353753    
     8.71200    -0.39638261    
     8.71600    -0.39925037    
     8.72000    -0.40214108    
     8.72400    -0.40505503    
     8.72800    -0.40799251    
     8.73200    -0.41095379    
     8.73600    -0.41393918    
     8.74000    -0.41694898    
     8.74400    -0.41998348    
     8.74800    -0.42304299    
     8.75200    -0.42612783    
     8.75600    -0.42923831    
     8.76000    -0.43237475    
     8.76400    -0.43553747    
     8.76800    -0.43872682    
     8.77200    -0.44194313    
     8.77600    -0.44518673    
     8.78000    -0.44845798    
     8.78400    -0.45175722    
     8.78800    -0.45508483    
     8.79200    -0.45844115    
     8.79600    -0.46182656    
     8.80000    -0.46524143    
     8.80400    -0.46868615    
     8.80800    -0.47216110    
     8.81200    -0.47566668    
     8.81600    -0.47920329    
     8.82000    -0.48277133    
     8.82400    -0.48637121    
     8.82800    -0.49000336    
     8.83200    -0.49366821    
     8.83600    -0.49736618    
     8.84000    -0.50109772    
     8.84400    -0.50486327    
     8.84800    -0.50866330    
     8.85200    -0.51249826    
     8.85600    -0.51636863    
     8.86000    -0.52027488    
     8.86400    -0.52421750    
     8.86800    -0.52819700    
     8.87200    -0.53221386    
     8.87600    -0.53626861    
     8.88000    -0.54036177    
     8.88400    -0.54449386    
     8.88800    -0.54866543    
     8.89200    -0.55287702    
     8.89600    -0.55712919    
     8.90000    -0.56142252    
     8.90400    -0.56575758    
     8.90800    -0.57013495    
     8.91200    -0.57455524    
     8.91600    -0.57901906    
     8.92000    -0.58352703    
     8.92400    -0.58807977    
     8.92800    -0.59267794    
     8.93200    -0.59732218    
     8.93600    -0.60201317    
     8.94000    -0.60675159    
     8.94400    -0.61153811    
     8.94800    -0.61637346    
     8.95200    -0.62125834    
     8.95600    -0.62619348    
     8.96000    -0.63117964    
     8.96400    -0.63621756    
     8.96800    -0.64130803    
     8.97200    -0.64645182    
     8.97600    -0.65164975    
     8.98000    -0.65690262    
     8.98400    -0.66221127    
     8.98800    -0.66757655    
     8.99200    -0.67299932    
     8.99600    -0.67848047    
     9.00000    -0.68402090    
