     4.00000      1.1615683    
     4.01200      1.1985849    
     4.02400      1.2374175    
     4.03600      1.2782006    
     4.04800      1.3210823    
     4.06000      1.3662273    
     4.07200      1.4138184    
     4.08400      1.4640601    
     4.09600      1.5171818    
     4.10800      1.5734424    
     4.12000      1.6331356    
     4.13200      1.6965966    
     4.14400      1.7642105    
     4.15600      1.8364223    
     4.16800      1.9137505    
     4.18000      1.9968030    
     4.19200      2.0862972    
     4.20400      2.1830854    
     4.21600      2.2881854    
     4.22800      2.4028187    
     4.24000      2.5284553    
     4.25200      2.6668679    
     4.26400      2.8201950    
     4.27600      2.9910128    
     4.28800      3.1824156    
     4.30000      3.3981024    
     4.31200      3.6424680    
     4.32400      3.9206923    
     4.33600      4.2388234    
     4.34800      4.6038467    
     4.36000      5.0237292    
     4.37200      5.5074307    
     4.38400      6.0648708    
     4.39600      6.7068398    
     4.40800      7.4448469    
     4.42000      8.2908987    
     4.43200      9.2572068    
     4.44400      10.355827    
     4.45600      11.598245    
     4.46800      12.994915    
     4.48000      14.554789    
     4.49200      16.284855    
     4.50400      18.189716    
     4.51600      20.271246    
     4.52800      22.528359    
     4.54000      24.956893    
     4.55200      27.549656    
     4.56400      30.296602    
     4.57600      33.185160    
     4.58800      36.200662    
     4.60000      39.326866    
     4.61200      42.546499    
     4.62400      45.841805    
     4.63600      49.195028    
     4.64800      52.588801    
     4.66000      56.006415    
     4.67200      59.431953    
     4.68400      62.850285    
     4.69600      66.246957    
     4.70800      69.607996    
     4.72000      72.919673    
     4.73200      76.168276    
     4.74400      79.339931    
     4.75600      82.420510    
     4.76800      85.395644    
     4.78000      88.250852    
     4.79200      90.971779    
     4.80400      93.544511    
     4.81600      95.955950    
     4.82800      98.194186    
     4.84000      100.24884    
     4.85200      102.11136    
     4.86400      103.77514    
     4.87600      105.23565    
     4.88800      106.49035    
     4.90000      107.53854    
     4.91200      108.38115    
     4.92400      109.02043    
     4.93600      109.45968    
     4.94800      109.70296    
     4.96000      109.75489    
     4.97200      109.62044    
     4.98400      109.30488    
     4.99600      108.81371    
     5.00800      108.15271    
     5.02000      107.32800    
     5.03200      106.34612    
     5.04400      105.21411    
     5.05600      103.93959    
     5.06800      102.53073    
     5.08000      100.99629    
     5.09200      99.345482    
     5.10400      97.587911    
     5.11600      95.733421    
     5.12800      93.791948    
     5.14000      91.773364    
     5.15200      89.687349    
     5.16400      87.543271    
     5.17600      85.350106    
     5.18800      83.116390    
     5.20000      80.850200    
     5.21200      78.559158    
     5.22400      76.250463    
     5.23600      73.930920    
     5.24800      71.606984    
     5.26000      69.284786    
     5.27200      66.970160    
     5.28400      64.668650    
     5.29600      62.385509    
     5.30800      60.125682    
     5.32000      57.893791    
     5.33200      55.694105    
     5.34400      53.530522    
     5.35600      51.406550    
     5.36800      49.325297    
     5.38000      47.289473    
     5.39200      45.301396    
     5.40400      43.363013    
     5.41600      41.475923    
     5.42800      39.641405    
     5.44000      37.860448    
     5.45200      36.133783    
     5.46400      34.461911    
     5.47600      32.845122    
     5.48800      31.283520    
     5.50000      29.777036    
     5.51200      28.325440    
     5.52400      26.928353    
     5.53600      25.585252    
     5.54800      24.295479    
     5.56000      23.058249    
     5.57200      21.872660    
     5.58400      20.737702    
     5.59600      19.652271    
     5.60800      18.615177    
     5.62000      17.625163    
     5.63200      16.680915    
     5.64400      15.781074    
     5.65600      14.924254    
     5.66800      14.109042    
     5.68000      13.334019    
     5.69200      12.597758    
     5.70400      11.898837    
     5.71600      11.235840    
     5.72800      10.607362    
     5.74000      10.012016    
     5.75200      9.4484291    
     5.76400      8.9152513    
     5.77600      8.4111551    
     5.78800      7.9348388    
     5.80000      7.4850288    
     5.81200      7.0604819    
     5.82400      6.6599876    
     5.83600      6.2823703    
     5.84800      5.9264909    
     5.86000      5.5912478    
     5.87200      5.2755786    
     5.88400      4.9784600    
     5.89600      4.6989085    
     5.90800      4.4359801    
     5.92000      4.1887698    
     5.93200      3.9564115    
     5.94400      3.7380767    
     5.95600      3.5329740    
     5.96800      3.3403481    
     5.98000      3.1594790    
     5.99200      2.9896807    
     6.00400      2.8303008    
     6.01600      2.6807192    
     6.02800      2.5403473    
     6.04000      2.4086268    
     6.05200      2.2850291    
     6.06400      2.1690540    
     6.07600      2.0602286    
     6.08800      1.9581065    
     6.10000      1.8622665    
     6.11200      1.7723115    
     6.12400      1.6878676    
     6.13600      1.6085826    
     6.14800      1.5341256    
     6.16000      1.4641850    
     6.17200      1.3984685    
     6.18400      1.3367014    
     6.19600      1.2786259    
     6.20800      1.2240004    
     6.22000      1.1725983    
     6.23200      1.1242073    
     6.24400      1.0786289    
     6.25600      1.0356772    
     6.26800     0.99517826    
     6.28000     0.95696973    
     6.29200     0.92089984    
     6.30400     0.88682691    
     6.31600     0.85461866    
     6.32800     0.82415173    
     6.34000     0.79531101    
     6.35200     0.76798920    
     6.36400     0.74208627    
     6.37600     0.71750902    
     6.38800     0.69417058    
     6.40000     0.67199005    
     6.41200     0.65089211    
     6.42400     0.63080660    
     6.43600     0.61166821    
     6.44800     0.59341616    
     6.46000     0.57599388    
     6.47200     0.55934872    
     6.48400     0.54343171    
     6.49600     0.52819726    
     6.50800     0.51360296    
     6.52000     0.49960935    
     6.53200     0.48617972    
     6.54400     0.47327988    
     6.55600     0.46087802    
     6.56800     0.44894454    
     6.58000     0.43745186    
     6.59200     0.42637431    
     6.60400     0.41568795    
     6.61600     0.40537051    
     6.62800     0.39540120    
     6.64000     0.38576064    
     6.65200     0.37643077    
     6.66400     0.36739472    
     6.67600     0.35863675    
     6.68800     0.35014216    
     6.70000     0.34189720    
     6.71200     0.33388903    
     6.72400     0.32610563    
     6.73600     0.31853574    
     6.74800     0.31116884    
     6.76000     0.30399505    
     6.77200     0.29700510    
     6.78400     0.29019029    
     6.79600     0.28354247    
     6.80800     0.27705395    
     6.82000     0.27071751    
     6.83200     0.26452635    
     6.84400     0.25847406    
     6.85600     0.25255460    
     6.86800     0.24676227    
     6.88000     0.24109167    
     6.89200     0.23553771    
     6.90400     0.23009557    
     6.91600     0.22476068    
     6.92800     0.21952870    
     6.94000     0.21439553    
     6.95200     0.20935725    
     6.96400     0.20441015    
     6.97600     0.19955069    
     6.98800     0.19477552    
     7.00000     0.19008140    
     7.01200     0.18546529    
     7.02400     0.18092424    
     7.03600     0.17645546    
     7.04800     0.17205627    
     7.06000     0.16772409    
     7.07200     0.16345646    
     7.08400     0.15925101    
     7.09600     0.15510548    
     7.10800     0.15101767    
     7.12000     0.14698549    
     7.13200     0.14300690    
     7.14400     0.13907995    
     7.15600     0.13520275    
     7.16800     0.13137350    
     7.18000     0.12759041    
     7.19200     0.12385179    
     7.20400     0.12015600    
     7.21600     0.11650142    
     7.22800     0.11288652    
     7.24000     0.10930978    
     7.25200     0.10576974    
     7.26400     0.10226498    
     7.27600     0.98794118E-01
     7.28800     0.95355806E-01
     7.30000     0.91948730E-01
     7.31200     0.88571610E-01
     7.32400     0.85223195E-01
     7.33600     0.81902265E-01
     7.34800     0.78607626E-01
     7.36000     0.75338110E-01
     7.37200     0.72092573E-01
     7.38400     0.68869894E-01
     7.39600     0.65668976E-01
     7.40800     0.62488739E-01
     7.42000     0.59328126E-01
     7.43200     0.56186094E-01
     7.44400     0.53061621E-01
     7.45600     0.49953698E-01
     7.46800     0.46861334E-01
     7.48000     0.43783548E-01
     7.49200     0.40719377E-01
     7.50400     0.37667865E-01
     7.51600     0.34628071E-01
     7.52800     0.31599064E-01
     7.54000     0.28579921E-01
     7.55200     0.25569728E-01
     7.56400     0.22567581E-01
     7.57600     0.19572581E-01
     7.58800     0.16583837E-01
     7.60000     0.13600463E-01
     7.61200     0.10621577E-01
     7.62400     0.76463032E-02
     7.63600     0.46737685E-02
     7.64800     0.17031025E-02
     7.66000    -0.12665626E-02
     7.67200    -0.42360933E-02
     7.68400    -0.72063553E-02
     7.69600    -0.10178214E-01
     7.70800    -0.13152535E-01
     7.72000    -0.16130187E-01
     7.73200    -0.19112037E-01
     7.74400    -0.22098957E-01
     7.75600    -0.25091822E-01
     7.76800    -0.28091510E-01
     7.78000    -0.31098904E-01
     7.79200    -0.34114893E-01
     7.80400    -0.37140371E-01
     7.81600    -0.40176237E-01
     7.82800    -0.43223401E-01
     7.84000    -0.46282778E-01
     7.85200    -0.49355292E-01
     7.86400    -0.52441879E-01
     7.87600    -0.55543481E-01
     7.88800    -0.58661054E-01
     7.90000    -0.61795566E-01
     7.91200    -0.64947995E-01
     7.92400    -0.68119335E-01
     7.93600    -0.71310593E-01
     7.94800    -0.74522790E-01
     7.96000    -0.77756965E-01
     7.97200    -0.81014171E-01
     7.98400    -0.84295483E-01
     7.99600    -0.87601990E-01
     8.00800    -0.90934803E-01
     8.02000    -0.94295054E-01
     8.03200    -0.97683896E-01
     8.04400    -0.10110250    
     8.05600    -0.10455208    
     8.06800    -0.10803384    
     8.08000    -0.11154905    
     8.09200    -0.11509898    
     8.10400    -0.11868493    
     8.11600    -0.12230825    
     8.12800    -0.12597030    
     8.14000    -0.12967248    
     8.15200    -0.13341624    
     8.16400    -0.13720303    
     8.17600    -0.14103437    
     8.18800    -0.14491182    
     8.20000    -0.14883694    
     8.21200    -0.15281139    
     8.22400    -0.15683683    
     8.23600    -0.16091499    
     8.24800    -0.16504764    
     8.26000    -0.16923660    
     8.27200    -0.17348375    
     8.28400    -0.17779102    
     8.29600    -0.18216039    
     8.30800    -0.18659392    
     8.32000    -0.19109372    
     8.33200    -0.19566196    
     8.34400    -0.20030091    
     8.35600    -0.20501287    
     8.36800    -0.20980024    
     8.38000    -0.21466549    
     8.39200    -0.21961119    
     8.40400    -0.22463997    
     8.41600    -0.22975458    
     8.42800    -0.23495783    
     8.44000    -0.24025265    
     8.45200    -0.24564209    
     8.46400    -0.25112927    
     8.47600    -0.25671745    
     8.48800    -0.26241001    
     8.50000    -0.26821043    
     8.51200    -0.27412236    
     8.52400    -0.28014956    
     8.53600    -0.28629594    
     8.54800    -0.29256557    
     8.56000    -0.29896266    
     8.57200    -0.30549162    
     8.58400    -0.31215701    
     8.59600    -0.31896358    
     8.60800    -0.32591628    
     8.62000    -0.33302026    
     8.63200    -0.34028090    
     8.64400    -0.34770379    
     8.65600    -0.35529477    
     8.66800    -0.36305994    
     8.68000    -0.37100565    
     8.69200    -0.37913854    
     8.70400    -0.38746556    
     8.71600    -0.39599397    
     8.72800    -0.40473134    
     8.74000    -0.41368563    
     8.75200    -0.42286516    
     8.76400    -0.43227863    
     8.77600    -0.44193518    
     8.78800    -0.45184439    
     8.80000    -0.46201631    
     8.81200    -0.47246150    
     8.82400    -0.48319105    
     8.83600    -0.49421661    
     8.84800    -0.50555046    
     8.86000    -0.51720550    
     8.87200    -0.52919534    
     8.88400    -0.54153430    
     8.89600    -0.55423752    
     8.90800    -0.56732094    
     8.92000    -0.58080143    
     8.93200    -0.59469681    
     8.94400    -0.60902593    
     8.95600    -0.62380876    
     8.96800    -0.63906646    
     8.98000    -0.65482145    
     8.99200    -0.67109756    
     9.00400    -0.68792010    
