     4.00000      114.29198    
     4.00400      115.53884    
     4.00800      116.80431    
     4.01200      118.08878    
     4.01600      119.39264    
     4.02000      120.71630    
     4.02400      122.06016    
     4.02800      123.42466    
     4.03200      124.81024    
     4.03600      126.21734    
     4.04000      127.64643    
     4.04400      129.09799    
     4.04800      130.57249    
     4.05200      132.07045    
     4.05600      133.59238    
     4.06000      135.13881    
     4.06400      136.71030    
     4.06800      138.30740    
     4.07200      139.93069    
     4.07600      141.58077    
     4.08000      143.25825    
     4.08400      144.96377    
     4.08800      146.69798    
     4.09200      148.46154    
     4.09600      150.25516    
     4.10000      152.07954    
     4.10400      153.93542    
     4.10800      155.82356    
     4.11200      157.74474    
     4.11600      159.69976    
     4.12000      161.68947    
     4.12400      163.71471    
     4.12800      165.77637    
     4.13200      167.87538    
     4.13600      170.01267    
     4.14000      172.18923    
     4.14400      174.40607    
     4.14800      176.66422    
     4.15200      178.96477    
     4.15600      181.30885    
     4.16000      183.69759    
     4.16400      186.13220    
     4.16800      188.61392    
     4.17200      191.14403    
     4.17600      193.72386    
     4.18000      196.35478    
     4.18400      199.03821    
     4.18800      201.77565    
     4.19200      204.56861    
     4.19600      207.41869    
     4.20000      210.32754    
     4.20400      213.29688    
     4.20800      216.32848    
     4.21200      219.42420    
     4.21600      222.58594    
     4.22000      225.81572    
     4.22400      229.11560    
     4.22800      232.48775    
     4.23200      235.93441    
     4.23600      239.45793    
     4.24000      243.06075    
     4.24400      246.74540    
     4.24800      250.51455    
     4.25200      254.37094    
     4.25600      258.31746    
     4.26000      262.35713    
     4.26400      266.49308    
     4.26800      270.72860    
     4.27200      275.06711    
     4.27600      279.51223    
     4.28000      284.06768    
     4.28400      288.73742    
     4.28800      293.52556    
     4.29200      298.43641    
     4.29600      303.47451    
     4.30000      308.64459    
     4.30400      313.95166    
     4.30800      319.40095    
     4.31200      324.99795    
     4.31600      330.74847    
     4.32000      336.65858    
     4.32400      342.73472    
     4.32800      348.98364    
     4.33200      355.41247    
     4.33600      362.02873    
     4.34000      368.84037    
     4.34400      375.85578    
     4.34800      383.08384    
     4.35200      390.53396    
     4.35600      398.21608    
     4.36000      406.14075    
     4.36400      414.31919    
     4.36800      422.76327    
     4.37200      431.48564    
     4.37600      440.49974    
     4.38000      449.81990    
     4.38400      459.46138    
     4.38800      469.44047    
     4.39200      479.77456    
     4.39600      490.48227    
     4.40000      501.58350    
     4.40400      513.09961    
     4.40800      525.05348    
     4.41200      537.46971    
     4.41600      550.37477    
     4.42000      563.79714    
     4.42400      577.76755    
     4.42800      592.31919    
     4.43200      607.48792    
     4.43600      623.31261    
     4.44000      639.83539    
     4.44400      657.10204    
     4.44800      675.16236    
     4.45200      694.07064    
     4.45600      713.88610    
     4.46000      734.67357    
     4.46400      756.50401    
     4.46800      779.45534    
     4.47200      803.61326    
     4.47600      829.07219    
     4.48000      855.93638    
     4.48400      884.32121    
     4.48800      914.35461    
     4.49200      946.17878    
     4.49600      979.95209    
     4.50000      1015.8514    
     4.50400      1054.0746    
     4.50800      1094.8437    
     4.51200      1138.4084    
     4.51600      1185.0501    
     4.52000      1235.0869    
     4.52400      1288.8789    
     4.52800      1346.8350    
     4.53200      1409.4202    
     4.53600      1477.1646    
     4.54000      1550.6731    
     4.54400      1630.6373    
     4.54800      1717.8475    
     4.55200      1813.2075    
     4.55600      1917.7491    
     4.56000      2032.6464    
     4.56400      2159.2295    
     4.56800      2298.9925    
     4.57200      2453.5936    
     4.57600      2624.8386    
     4.58000      2814.6390    
     4.58400      3024.9288    
     4.58800      3257.5231    
     4.59200      3513.8971    
     4.59600      3794.8668    
     4.60000      4100.1722    
     4.60400      4427.9883    
     4.60800      4774.4492    
     4.61200      5133.3214    
     4.61600      5496.0018    
     4.62000      5851.9822    
     4.62400      6189.8040    
     4.62800      6498.3648    
     4.63200      6768.3078    
     4.63600      6993.2014    
     4.64000      7170.2855    
     4.64400      7300.6795    
     4.64800      7389.0648    
     4.65200      7442.9442    
     4.65600      7471.6382    
     4.66000      7485.1906    
     4.66400      7493.3318    
     4.66800      7504.6187    
     4.67200      7525.8225    
     4.67600      7561.5985    
     4.68000      7614.4250    
     4.68400      7684.7678    
     4.68800      7771.4043    
     4.69200      7871.8419    
     4.69600      7982.7779    
     4.70000      8100.5553    
     4.70400      8221.5757    
     4.70800      8342.6344    
     4.71200      8461.1647    
     4.71600      8575.4019    
     4.72000      8684.4914    
     4.72400      8788.5570    
     4.72800      8888.7267    
     4.73200      8987.1005    
     4.73600      9086.6450    
     4.74000      9191.0114    
     4.74400      9304.2863    
     4.74800      9430.6956    
     4.75200      9574.2800    
     4.75600      9738.5546    
     4.76000      9926.1660    
     4.76400      10138.564    
     4.76800      10375.728    
     4.77200      10635.990    
     4.77600      10916.007    
     4.78000      11210.905    
     4.78400      11514.589    
     4.78800      11820.206    
     4.79200      12120.728    
     4.79600      12409.598    
     4.80000      12681.384    
     4.80400      12932.313    
     4.80800      13160.568    
     4.81200      13366.273    
     4.81600      13551.147    
     4.82000      13717.863    
     4.82400      13869.261    
     4.82800      14007.595    
     4.83200      14133.999    
     4.83600      14248.312    
     4.84000      14349.283    
     4.84400      14435.055    
     4.84800      14503.775    
     4.85200      14554.166    
     4.85600      14585.926    
     4.86000      14599.908    
     4.86400      14598.063    
     4.86800      14583.197    
     4.87200      14558.625    
     4.87600      14527.799    
     4.88000      14493.975    
     4.88400      14459.958    
     4.88800      14427.947    
     4.89200      14399.492    
     4.89600      14375.547    
     4.90000      14356.590    
     4.90400      14342.777    
     4.90800      14334.095    
     4.91200      14330.481    
     4.91600      14331.899    
     4.92000      14338.368    
     4.92400      14349.930    
     4.92800      14366.590    
     4.93200      14388.254    
     4.93600      14414.680    
     4.94000      14445.460    
     4.94400      14480.037    
     4.94800      14517.738    
     4.95200      14557.838    
     4.95600      14599.630    
     4.96000      14642.493    
     4.96400      14685.952    
     4.96800      14729.708    
     4.97200      14773.630    
     4.97600      14817.696    
     4.98000      14861.883    
     4.98400      14906.027    
     4.98800      14949.673    
     4.99200      14991.966    
     4.99600      15031.587    
     5.00000      15066.778    
     5.00400      15095.441    
     5.00800      15115.338    
     5.01200      15124.352    
     5.01600      15120.780    
     5.02000      15103.582    
     5.02400      15072.529    
     5.02800      15028.223    
     5.03200      14971.953    
     5.03600      14905.455    
     5.04000      14830.594    
     5.04400      14749.074    
     5.04800      14662.235    
     5.05200      14570.967    
     5.05600      14475.756    
     5.06000      14376.814    
     5.06400      14274.245    
     5.06800      14168.204    
     5.07200      14059.010    
     5.07600      13947.194    
     5.08000      13833.486    
     5.08400      13718.752    
     5.08800      13603.911    
     5.09200      13489.841    
     5.09600      13377.301    
     5.10000      13266.873    
     5.10400      13158.934    
     5.10800      13053.660    
     5.11200      12951.059    
     5.11600      12851.024    
     5.12000      12753.383    
     5.12400      12657.961    
     5.12800      12564.608    
     5.13200      12473.226    
     5.13600      12383.761    
     5.14000      12296.180    
     5.14400      12210.443    
     5.14800      12126.462    
     5.15200      12044.077    
     5.15600      11963.034    
     5.16000      11882.980    
     5.16400      11803.467    
     5.16800      11723.982    
     5.17200      11643.984    
     5.17600      11562.947    
     5.18000      11480.413    
     5.18400      11396.027    
     5.18800      11309.566    
     5.19200      11220.944    
     5.19600      11130.186    
     5.20000      11037.390    
     5.20400      10942.674    
     5.20800      10846.122    
     5.21200      10747.745    
     5.21600      10647.457    
     5.22000      10545.080    
     5.22400      10440.386    
     5.22800      10333.154    
     5.23200      10223.240    
     5.23600      10110.637    
     5.24000      9995.5109    
     5.24400      9878.1999    
     5.24800      9759.1789    
     5.25200      9638.9997    
     5.25600      9518.2186    
     5.26000      9397.3328    
     5.26400      9276.7383    
     5.26800      9156.7163    
     5.27200      9037.4449    
     5.27600      8919.0270    
     5.28000      8801.5260    
     5.28400      8684.9981    
     5.28800      8569.5161    
     5.29200      8455.1799    
     5.29600      8342.1150    
     5.30000      8230.4621    
     5.30400      8120.3615    
     5.30800      8011.9367    
     5.31200      7905.2786    
     5.31600      7800.4343    
     5.32000      7697.4019    
     5.32400      7596.1328    
     5.32800      7496.5397    
     5.33200      7398.5089    
     5.33600      7301.9146    
     5.34000      7206.6319    
     5.34400      7112.5480    
     5.34800      7019.5684    
     5.35200      6927.6178    
     5.35600      6836.6380    
     5.36000      6746.5812    
     5.36400      6657.4035    
     5.36800      6569.0569    
     5.37200      6481.4823    
     5.37600      6394.6048    
     5.38000      6308.3335    
     5.38400      6222.5643    
     5.38800      6137.1880    
     5.39200      6052.1002    
     5.39600      5967.2130    
     5.40000      5882.4657    
     5.40400      5797.8325    
     5.40800      5713.3242    
     5.41200      5628.9845    
     5.41600      5544.8809    
     5.42000      5461.0922    
     5.42400      5377.6957    
     5.42800      5294.7557    
     5.43200      5212.3163    
     5.43600      5130.4004    
     5.44000      5049.0161    
     5.44400      4968.1669    
     5.44800      4887.8638    
     5.45200      4808.1357    
     5.45600      4729.0345    
     5.46000      4650.6349    
     5.46400      4573.0280    
     5.46800      4496.3104    
     5.47200      4420.5733    
     5.47600      4345.8925    
     5.48000      4272.3229    
     5.48400      4199.8973    
     5.48800      4128.6292    
     5.49200      4058.5169    
     5.49600      3989.5502    
     5.50000      3921.7151    
     5.50400      3854.9984    
     5.50800      3789.3893    
     5.51200      3724.8798    
     5.51600      3661.4641    
     5.52000      3599.1364    
     5.52400      3537.8888    
     5.52800      3477.7092    
     5.53200      3418.5793    
     5.53600      3360.4740    
     5.54000      3303.3616    
     5.54400      3247.2054    
     5.54800      3191.9650    
     5.55200      3137.5993    
     5.55600      3084.0683    
     5.56000      3031.3354    
     5.56400      2979.3687    
     5.56800      2928.1415    
     5.57200      2877.6324    
     5.57600      2827.8244    
     5.58000      2778.7041    
     5.58400      2730.2597    
     5.58800      2682.4798    
     5.59200      2635.3521    
     5.59600      2588.8624    
     5.60000      2542.9951    
     5.60400      2497.7339    
     5.60800      2453.0633    
     5.61200      2408.9700    
     5.61600      2365.4452    
     5.62000      2322.4856    
     5.62400      2280.0937    
     5.62800      2238.2769    
     5.63200      2197.0464    
     5.63600      2156.4149    
     5.64000      2116.3941    
     5.64400      2076.9934    
     5.64800      2038.2179    
     5.65200      2000.0690    
     5.65600      1962.5446    
     5.66000      1925.6413    
     5.66400      1889.3555    
     5.66800      1853.6853    
     5.67200      1818.6307    
     5.67600      1784.1938    
     5.68000      1750.3780    
     5.68400      1717.1866    
     5.68800      1684.6213    
     5.69200      1652.6814    
     5.69600      1621.3631    
     5.70000      1590.6599    
     5.70400      1560.5622    
     5.70800      1531.0589    
     5.71200      1502.1374    
     5.71600      1473.7848    
     5.72000      1445.9884    
     5.72400      1418.7357    
     5.72800      1392.0149    
     5.73200      1365.8149    
     5.73600      1340.1247    
     5.74000      1314.9338    
     5.74400      1290.2314    
     5.74800      1266.0067    
     5.75200      1242.2482    
     5.75600      1218.9443    
     5.76000      1196.0830    
     5.76400      1173.6522    
     5.76800      1151.6403    
     5.77200      1130.0357    
     5.77600      1108.8280    
     5.78000      1088.0074    
     5.78400      1067.5653    
     5.78800      1047.4940    
     5.79200      1027.7868    
     5.79600      1008.4380    
     5.80000      989.44205    
     5.80400      970.79402    
     5.80800      952.48887    
     5.81200      934.52148    
     5.81600      916.88656    
     5.82000      899.57874    
     5.82400      882.59265    
     5.82800      865.92324    
     5.83200      849.56592    
     5.83600      833.51671    
     5.84000      817.77231    
     5.84400      802.32998    
     5.84800      787.18734    
     5.85200      772.34211    
     5.85600      757.79182    
     5.86000      743.53357    
     5.86400      729.56393    
     5.86800      715.87888    
     5.87200      702.47402    
     5.87600      689.34466    
     5.88000      676.48610    
     5.88400      663.89376    
     5.88800      651.56324    
     5.89200      639.49033    
     5.89600      627.67096    
     5.90000      616.10101    
     5.90400      604.77623    
     5.90800      593.69218    
     5.91200      582.84415    
     5.91600      572.22720    
     5.92000      561.83622    
     5.92400      551.66598    
     5.92800      541.71122    
     5.93200      531.96675    
     5.93600      522.42747    
     5.94000      513.08843    
     5.94400      503.94484    
     5.94800      494.99213    
     5.95200      486.22584    
     5.95600      477.64171    
     5.96000      469.23556    
     5.96400      461.00333    
     5.96800      452.94103    
     5.97200      445.04475    
     5.97600      437.31065    
     5.98000      429.73497    
     5.98400      422.31406    
     5.98800      415.04437    
     5.99200      407.92253    
     5.99600      400.94531    
     6.00000      394.10964    
     6.00400      387.41266    
     6.00800      380.85163    
     6.01200      374.42399    
     6.01600      368.12724    
     6.02000      361.95900    
     6.02400      355.91690    
     6.02800      349.99857    
     6.03200      344.20169    
     6.03600      338.52391    
     6.04000      332.96291    
     6.04400      327.51641    
     6.04800      322.18221    
     6.05200      316.95816    
     6.05600      311.84222    
     6.06000      306.83240    
     6.06400      301.92678    
     6.06800      297.12344    
     6.07200      292.42049    
     6.07600      287.81597    
     6.08000      283.30792    
     6.08400      278.89434    
     6.08800      274.57320    
     6.09200      270.34248    
     6.09600      266.20019    
     6.10000      262.14437    
     6.10400      258.17310    
     6.10800      254.28451    
     6.11200      250.47678    
     6.11600      246.74809    
     6.12000      243.09667    
     6.12400      239.52074    
     6.12800      236.01856    
     6.13200      232.58839    
     6.13600      229.22850    
     6.14000      225.93722    
     6.14400      222.71287    
     6.14800      219.55385    
     6.15200      216.45857    
     6.15600      213.42551    
     6.16000      210.45317    
     6.16400      207.54012    
     6.16800      204.68497    
     6.17200      201.88637    
     6.17600      199.14302    
     6.18000      196.45364    
     6.18400      193.81700    
     6.18800      191.23190    
     6.19200      188.69717    
     6.19600      186.21166    
     6.20000      183.77425    
     6.20400      181.38388    
     6.20800      179.03948    
     6.21200      176.74004    
     6.21600      174.48457    
     6.22000      172.27212    
     6.22400      170.10175    
     6.22800      167.97258    
     6.23200      165.88373    
     6.23600      163.83434    
     6.24000      161.82359    
     6.24400      159.85063    
     6.24800      157.91467    
     6.25200      156.01490    
     6.25600      154.15053    
     6.26000      152.32080    
     6.26400      150.52494    
     6.26800      148.76221    
     6.27200      147.03190    
     6.27600      145.33330    
     6.28000      143.66573    
     6.28400      142.02850    
     6.28800      140.42095    
     6.29200      138.84242    
     6.29600      137.29226    
     6.30000      135.76983    
     6.30400      134.27450    
     6.30800      132.80564    
     6.31200      131.36266    
     6.31600      129.94495    
     6.32000      128.55194    
     6.32400      127.18305    
     6.32800      125.83775    
     6.33200      124.51549    
     6.33600      123.21573    
     6.34000      121.93798    
     6.34400      120.68171    
     6.34800      119.44645    
     6.35200      118.23170    
     6.35600      117.03700    
     6.36000      115.86189    
     6.36400      114.70592    
     6.36800      113.56867    
     6.37200      112.44970    
     6.37600      111.34860    
     6.38000      110.26498    
     6.38400      109.19845    
     6.38800      108.14864    
     6.39200      107.11517    
     6.39600      106.09768    
     6.40000      105.09584    
     6.40400      104.10930    
     6.40800      103.13774    
     6.41200      102.18082    
     6.41600      101.23823    
     6.42000      100.30968    
     6.42400      99.394855    
     6.42800      98.493469    
     6.43200      97.605236    
     6.43600      96.729881    
     6.44000      95.867133    
     6.44400      95.016729    
     6.44800      94.178412    
     6.45200      93.351931    
     6.45600      92.537039    
     6.46000      91.733496    
     6.46400      90.941066    
     6.46800      90.159517    
     6.47200      89.388623    
     6.47600      88.628161    
     6.48000      87.877916    
     6.48400      87.137676    
     6.48800      86.407233    
     6.49200      85.686385    
     6.49600      84.974936    
     6.50000      84.272691    
     6.50400      83.579461    
     6.50800      82.895062    
     6.51200      82.219311    
     6.51600      81.552031    
     6.52000      80.893049    
     6.52400      80.242194    
     6.52800      79.599301    
     6.53200      78.964208    
     6.53600      78.336756    
     6.54000      77.716793    
     6.54400      77.104167    
     6.54800      76.498731    
     6.55200      75.900343    
     6.55600      75.308862    
     6.56000      74.724152    
     6.56400      74.146080    
     6.56800      73.574515    
     6.57200      73.009331    
     6.57600      72.450404    
     6.58000      71.897612    
     6.58400      71.350839    
     6.58800      70.809968    
     6.59200      70.274889    
     6.59600      69.745491    
     6.60000      69.221667    
     6.60400      68.703314    
     6.60800      68.190329    
     6.61200      67.682613    
     6.61600      67.180070    
     6.62000      66.682603    
     6.62400      66.190121    
     6.62800      65.702533    
     6.63200      65.219751    
     6.63600      64.741687    
     6.64000      64.268258    
     6.64400      63.799379    
     6.64800      63.334971    
     6.65200      62.874954    
     6.65600      62.419250    
     6.66000      61.967784    
     6.66400      61.520482    
     6.66800      61.077271    
     6.67200      60.638079    
     6.67600      60.202838    
     6.68000      59.771480    
     6.68400      59.343936    
     6.68800      58.920143    
     6.69200      58.500036    
     6.69600      58.083552    
     6.70000      57.670630    
     6.70400      57.261210    
     6.70800      56.855233    
     6.71200      56.452641    
     6.71600      56.053378    
     6.72000      55.657390    
     6.72400      55.264620    
     6.72800      54.875018    
     6.73200      54.488531    
     6.73600      54.105107    
     6.74000      53.724698    
     6.74400      53.347254    
     6.74800      52.972727    
     6.75200      52.601072    
     6.75600      52.232242    
     6.76000      51.866192    
     6.76400      51.502878    
     6.76800      51.142258    
     6.77200      50.784289    
     6.77600      50.428930    
     6.78000      50.076140    
     6.78400      49.725880    
     6.78800      49.378111    
     6.79200      49.032795    
     6.79600      48.689894    
     6.80000      48.349372    
     6.80400      48.011192    
     6.80800      47.675321    
     6.81200      47.341722    
     6.81600      47.010363    
     6.82000      46.681209    
     6.82400      46.354229    
     6.82800      46.029390    
     6.83200      45.706661    
     6.83600      45.386012    
     6.84000      45.067410    
     6.84400      44.750828    
     6.84800      44.436236    
     6.85200      44.123605    
     6.85600      43.812906    
     6.86000      43.504113    
     6.86400      43.197197    
     6.86800      42.892133    
     6.87200      42.588894    
     6.87600      42.287454    
     6.88000      41.987788    
     6.88400      41.689870    
     6.88800      41.393676    
     6.89200      41.099183    
     6.89600      40.806365    
     6.90000      40.515201    
     6.90400      40.225667    
     6.90800      39.937739    
     6.91200      39.651397    
     6.91600      39.366618    
     6.92000      39.083381    
     6.92400      38.801665    
     6.92800      38.521448    
     6.93200      38.242710    
     6.93600      37.965431    
     6.94000      37.689591    
     6.94400      37.415170    
     6.94800      37.142150    
     6.95200      36.870511    
     6.95600      36.600235    
     6.96000      36.331302    
     6.96400      36.063696    
     6.96800      35.797398    
     6.97200      35.532390    
     6.97600      35.268655    
     6.98000      35.006177    
     6.98400      34.744937    
     6.98800      34.484921    
     6.99200      34.226110    
     6.99600      33.968490    
     7.00000      33.712044    
     7.00400      33.456756    
     7.00800      33.202611    
     7.01200      32.949594    
     7.01600      32.697690    
     7.02000      32.446883    
     7.02400      32.197160    
     7.02800      31.948505    
     7.03200      31.700905    
     7.03600      31.454344    
     7.04000      31.208811    
     7.04400      30.964289    
     7.04800      30.720767    
     7.05200      30.478230    
     7.05600      30.236666    
     7.06000      29.996061    
     7.06400      29.756402    
     7.06800      29.517677    
     7.07200      29.279873    
     7.07600      29.042977    
     7.08000      28.806977    
     7.08400      28.571861    
     7.08800      28.337617    
     7.09200      28.104234    
     7.09600      27.871698    
     7.10000      27.639999    
     7.10400      27.409125    
     7.10800      27.179065    
     7.11200      26.949807    
     7.11600      26.721340    
     7.12000      26.493654    
     7.12400      26.266737    
     7.12800      26.040579    
     7.13200      25.815168    
     7.13600      25.590495    
     7.14000      25.366548    
     7.14400      25.143318    
     7.14800      24.920794    
     7.15200      24.698966    
     7.15600      24.477825    
     7.16000      24.257359    
     7.16400      24.037559    
     7.16800      23.818416    
     7.17200      23.599919    
     7.17600      23.382059    
     7.18000      23.164827    
     7.18400      22.948214    
     7.18800      22.732209    
     7.19200      22.516803    
     7.19600      22.301988    
     7.20000      22.087754    
     7.20400      21.874093    
     7.20800      21.660995    
     7.21200      21.448451    
     7.21600      21.236453    
     7.22000      21.024992    
     7.22400      20.814060    
     7.22800      20.603647    
     7.23200      20.393745    
     7.23600      20.184346    
     7.24000      19.975442    
     7.24400      19.767023    
     7.24800      19.559083    
     7.25200      19.351612    
     7.25600      19.144602    
     7.26000      18.938046    
     7.26400      18.731935    
     7.26800      18.526262    
     7.27200      18.321018    
     7.27600      18.116196    
     7.28000      17.911787    
     7.28400      17.707785    
     7.28800      17.504181    
     7.29200      17.300968    
     7.29600      17.098138    
     7.30000      16.895683    
     7.30400      16.693597    
     7.30800      16.491871    
     7.31200      16.290498    
     7.31600      16.089471    
     7.32000      15.888782    
     7.32400      15.688425    
     7.32800      15.488391    
     7.33200      15.288674    
     7.33600      15.089267    
     7.34000      14.890162    
     7.34400      14.691352    
     7.34800      14.492830    
     7.35200      14.294589    
     7.35600      14.096623    
     7.36000      13.898924    
     7.36400      13.701485    
     7.36800      13.504299    
     7.37200      13.307360    
     7.37600      13.110661    
     7.38000      12.914194    
     7.38400      12.717954    
     7.38800      12.521933    
     7.39200      12.326124    
     7.39600      12.130522    
     7.40000      11.935118    
     7.40400      11.739908    
     7.40800      11.544883    
     7.41200      11.350038    
     7.41600      11.155365    
     7.42000      10.960859    
     7.42400      10.766512    
     7.42800      10.572319    
     7.43200      10.378272    
     7.43600      10.184366    
     7.44000      9.9905939    
     7.44400      9.7969489    
     7.44800      9.6034250    
     7.45200      9.4100157    
     7.45600      9.2167146    
     7.46000      9.0235154    
     7.46400      8.8304118    
     7.46800      8.6373974    
     7.47200      8.4444659    
     7.47600      8.2516109    
     7.48000      8.0588263    
     7.48400      7.8661058    
     7.48800      7.6734429    
     7.49200      7.4808317    
     7.49600      7.2882656    
     7.50000      7.0957387    
     7.50400      6.9032445    
     7.50800      6.7107770    
     7.51200      6.5183298    
     7.51600      6.3258969    
     7.52000      6.1334720    
     7.52400      5.9410489    
     7.52800      5.7486215    
     7.53200      5.5561836    
     7.53600      5.3637289    
     7.54000      5.1712515    
     7.54400      4.9787450    
     7.54800      4.7862034    
     7.55200      4.5936205    
     7.55600      4.4009901    
     7.56000      4.2083061    
     7.56400      4.0155623    
     7.56800      3.8227527    
     7.57200      3.6298710    
     7.57600      3.4369112    
     7.58000      3.2438670    
     7.58400      3.0507323    
     7.58800      2.8575010    
     7.59200      2.6641669    
     7.59600      2.4707239    
     7.60000      2.2771657    
     7.60400      2.0834863    
     7.60800      1.8896795    
     7.61200      1.6957391    
     7.61600      1.5016589    
     7.62000      1.3074328    
     7.62400      1.1130545    
     7.62800     0.91851781    
     7.63200     0.72381660    
     7.63600     0.52894463    
     7.64000     0.33389567    
     7.64400     0.13866348    
     7.64800    -0.56758161E-01
     7.65200    -0.25237552    
     7.65600    -0.44819485    
     7.66000    -0.64422243    
     7.66400    -0.84046455    
     7.66800     -1.0369275    
     7.67200     -1.2336176    
     7.67600     -1.4305411    
     7.68000     -1.6277045    
     7.68400     -1.8251140    
     7.68800     -2.0227760    
     7.69200     -2.2206970    
     7.69600     -2.4188832    
     7.70000     -2.6173412    
     7.70400     -2.8160773    
     7.70800     -3.0150980    
     7.71200     -3.2144098    
     7.71600     -3.4140192    
     7.72000     -3.6139326    
     7.72400     -3.8141566    
     7.72800     -4.0146977    
     7.73200     -4.2155625    
     7.73600     -4.4167577    
     7.74000     -4.6182897    
     7.74400     -4.8201653    
     7.74800     -5.0223910    
     7.75200     -5.2249737    
     7.75600     -5.4279199    
     7.76000     -5.6312364    
     7.76400     -5.8349300    
     7.76800     -6.0390075    
     7.77200     -6.2434756    
     7.77600     -6.4483411    
     7.78000     -6.6536111    
     7.78400     -6.8592922    
     7.78800     -7.0653916    
     7.79200     -7.2719160    
     7.79600     -7.4788726    
     7.80000     -7.6862682    
     7.80400     -7.8941100    
     7.80800     -8.1024050    
     7.81200     -8.3111603    
     7.81600     -8.5203831    
     7.82000     -8.7300805    
     7.82400     -8.9402598    
     7.82800     -9.1509282    
     7.83200     -9.3620929    
     7.83600     -9.5737613    
     7.84000     -9.7859408    
     7.84400     -9.9986386    
     7.84800     -10.211862    
     7.85200     -10.425619    
     7.85600     -10.639917    
     7.86000     -10.854764    
     7.86400     -11.070166    
     7.86800     -11.286132    
     7.87200     -11.502669    
     7.87600     -11.719785    
     7.88000     -11.937488    
     7.88400     -12.155785    
     7.88800     -12.374685    
     7.89200     -12.594195    
     7.89600     -12.814323    
     7.90000     -13.035078    
     7.90400     -13.256466    
     7.90800     -13.478497    
     7.91200     -13.701179    
     7.91600     -13.924519    
     7.92000     -14.148527    
     7.92400     -14.373209    
     7.92800     -14.598575    
     7.93200     -14.824633    
     7.93600     -15.051392    
     7.94000     -15.278859    
     7.94400     -15.507044    
     7.94800     -15.735955    
     7.95200     -15.965600    
     7.95600     -16.195989    
     7.96000     -16.427131    
     7.96400     -16.659034    
     7.96800     -16.891706    
     7.97200     -17.125158    
     7.97600     -17.359398    
     7.98000     -17.594436    
     7.98400     -17.830279    
     7.98800     -18.066939    
     7.99200     -18.304423    
     7.99600     -18.542742    
     8.00000     -18.781904    
     8.00400     -19.021920    
     8.00800     -19.262798    
     8.01200     -19.504550    
     8.01600     -19.747183    
     8.02000     -19.990709    
     8.02400     -20.235136    
     8.02800     -20.480475    
     8.03200     -20.726737    
     8.03600     -20.973930    
     8.04000     -21.222066    
     8.04400     -21.471154    
     8.04800     -21.721205    
     8.05200     -21.972229    
     8.05600     -22.224237    
     8.06000     -22.477240    
     8.06400     -22.731247    
     8.06800     -22.986271    
     8.07200     -23.242321    
     8.07600     -23.499409    
     8.08000     -23.757545    
     8.08400     -24.016742    
     8.08800     -24.277009    
     8.09200     -24.538359    
     8.09600     -24.800803    
     8.10000     -25.064352    
     8.10400     -25.329019    
     8.10800     -25.594814    
     8.11200     -25.861749    
     8.11600     -26.129837    
     8.12000     -26.399089    
     8.12400     -26.669518    
     8.12800     -26.941136    
     8.13200     -27.213955    
     8.13600     -27.487987    
     8.14000     -27.763246    
     8.14400     -28.039744    
     8.14800     -28.317493    
     8.15200     -28.596507    
     8.15600     -28.876798    
     8.16000     -29.158381    
     8.16400     -29.441267    
     8.16800     -29.725470    
     8.17200     -30.011005    
     8.17600     -30.297884    
     8.18000     -30.586122    
     8.18400     -30.875732    
     8.18800     -31.166728    
     8.19200     -31.459124    
     8.19600     -31.752935    
     8.20000     -32.048176    
     8.20400     -32.344860    
     8.20800     -32.643003    
     8.21200     -32.942619    
     8.21600     -33.243723    
     8.22000     -33.546331    
     8.22400     -33.850457    
     8.22800     -34.156118    
     8.23200     -34.463329    
     8.23600     -34.772105    
     8.24000     -35.082462    
     8.24400     -35.394418    
     8.24800     -35.707987    
     8.25200     -36.023186    
     8.25600     -36.340032    
     8.26000     -36.658541    
     8.26400     -36.978731    
     8.26800     -37.300618    
     8.27200     -37.624220    
     8.27600     -37.949554    
     8.28000     -38.276638    
     8.28400     -38.605489    
     8.28800     -38.936126    
     8.29200     -39.268567    
     8.29600     -39.602829    
     8.30000     -39.938933    
     8.30400     -40.276895    
     8.30800     -40.616736    
     8.31200     -40.958474    
     8.31600     -41.302129    
     8.32000     -41.647720    
     8.32400     -41.995267    
     8.32800     -42.344791    
     8.33200     -42.696310    
     8.33600     -43.049847    
     8.34000     -43.405420    
     8.34400     -43.763052    
     8.34800     -44.122763    
     8.35200     -44.484575    
     8.35600     -44.848509    
     8.36000     -45.214587    
     8.36400     -45.582831    
     8.36800     -45.953263    
     8.37200     -46.325906    
     8.37600     -46.700783    
     8.38000     -47.077916    
     8.38400     -47.457330    
     8.38800     -47.839047    
     8.39200     -48.223092    
     8.39600     -48.609489    
     8.40000     -48.998261    
     8.40400     -49.389434    
     8.40800     -49.783033    
     8.41200     -50.179083    
     8.41600     -50.577609    
     8.42000     -50.978638    
     8.42400     -51.382195    
     8.42800     -51.788307    
     8.43200     -52.197001    
     8.43600     -52.608304    
     8.44000     -53.022242    
     8.44400     -53.438845    
     8.44800     -53.858140    
     8.45200     -54.280156    
     8.45600     -54.704921    
     8.46000     -55.132464    
     8.46400     -55.562814    
     8.46800     -55.996003    
     8.47200     -56.432059    
     8.47600     -56.871013    
     8.48000     -57.312897    
     8.48400     -57.757741    
     8.48800     -58.205578    
     8.49200     -58.656438    
     8.49600     -59.110356    
     8.50000     -59.567363    
     8.50400     -60.027493    
     8.50800     -60.490779    
     8.51200     -60.957256    
     8.51600     -61.426959    
     8.52000     -61.899922    
     8.52400     -62.376180    
     8.52800     -62.855771    
     8.53200     -63.338729    
     8.53600     -63.825092    
     8.54000     -64.314897    
     8.54400     -64.808182    
     8.54800     -65.304986    
     8.55200     -65.805346    
     8.55600     -66.309302    
     8.56000     -66.816895    
     8.56400     -67.328163    
     8.56800     -67.843149    
     8.57200     -68.361893    
     8.57600     -68.884438    
     8.58000     -69.410826    
     8.58400     -69.941100    
     8.58800     -70.475303    
     8.59200     -71.013480    
     8.59600     -71.555676    
     8.60000     -72.101935    
     8.60400     -72.652305    
     8.60800     -73.206832    
     8.61200     -73.765562    
     8.61600     -74.328544    
     8.62000     -74.895827    
     8.62400     -75.467460    
     8.62800     -76.043493    
     8.63200     -76.623976    
     8.63600     -77.208960    
     8.64000     -77.798499    
     8.64400     -78.392644    
     8.64800     -78.991449    
     8.65200     -79.594969    
     8.65600     -80.203258    
     8.66000     -80.816372    
     8.66400     -81.434368    
     8.66800     -82.057304    
     8.67200     -82.685238    
     8.67600     -83.318228    
     8.68000     -83.956335    
     8.68400     -84.599619    
     8.68800     -85.248143    
     8.69200     -85.901969    
     8.69600     -86.561160    
     8.70000     -87.225781    
     8.70400     -87.895898    
     8.70800     -88.571576    
     8.71200     -89.252883    
     8.71600     -89.939887    
     8.72000     -90.632659    
     8.72400     -91.331267    
     8.72800     -92.035784    
     8.73200     -92.746283    
     8.73600     -93.462837    
     8.74000     -94.185520    
     8.74400     -94.914409    
     8.74800     -95.649581    
     8.75200     -96.391114    
     8.75600     -97.139087    
     8.76000     -97.893582    
     8.76400     -98.654679    
     8.76800     -99.422464    
     8.77200     -100.19702    
     8.77600     -100.97843    
     8.78000     -101.76679    
     8.78400     -102.56218    
     8.78800     -103.36469    
     8.79200     -104.17441    
     8.79600     -104.99145    
     8.80000     -105.81588    
     8.80400     -106.64781    
     8.80800     -107.48734    
     8.81200     -108.33456    
     8.81600     -109.18957    
     8.82000     -110.05248    
     8.82400     -110.92340    
     8.82800     -111.80241    
     8.83200     -112.68965    
     8.83600     -113.58520    
     8.84000     -114.48919    
     8.84400     -115.40173    
     8.84800     -116.32292    
     8.85200     -117.25290    
     8.85600     -118.19177    
     8.86000     -119.13966    
     8.86400     -120.09670    
     8.86800     -121.06299    
     8.87200     -122.03868    
     8.87600     -123.02389    
     8.88000     -124.01876    
     8.88400     -125.02341    
     8.88800     -126.03798    
     8.89200     -127.06261    
     8.89600     -128.09745    
     8.90000     -129.14263    
     8.90400     -130.19830    
     8.90800     -131.26461    
     8.91200     -132.34172    
     8.91600     -133.42976    
     8.92000     -134.52891    
     8.92400     -135.63932    
     8.92800     -136.76115    
     8.93200     -137.89457    
     8.93600     -139.03974    
     8.94000     -140.19684    
     8.94400     -141.36605    
     8.94800     -142.54753    
     8.95200     -143.74147    
     8.95600     -144.94806    
     8.96000     -146.16749    
     8.96400     -147.39994    
     8.96800     -148.64560    
     8.97200     -149.90469    
     8.97600     -151.17740    
     8.98000     -152.46393    
     8.98400     -153.76451    
     8.98800     -155.07933    
     8.99200     -156.40863    
     8.99600     -157.75262    
     9.00000     -159.11154    
