  -171.924243689677      -5.737637956591489E-192 -1.486157893343674E-192
  -171.133787396851      -8.124100236920508E-164  6.912472339225358E-164
  -170.343331104025       9.462779732692059E-163  1.135279955283881E-161
  -169.552874811199       5.644733836997640E-160  3.480898401461920E-160
  -168.762418518373       2.775754370655763E-158 -1.063368149310793E-158
  -167.971962225547       3.437209444791785E-157 -1.095128524971441E-156
  -167.181505932720      -2.205693171185873E-155 -3.368386381853121E-155
  -166.391049639894      -1.312613464760747E-153 -1.609356574409101E-154
  -165.600593347068      -3.074058480655327E-152  2.781388978680595E-152
  -164.810137054242       1.840045210203768E-152  1.255962887392082E-150
  -164.019680761416       2.815446258814759E-149  2.414859394449943E-149
  -163.229224468590       1.062334085931519E-147 -1.500739457904237E-148
  -162.438768175764       1.655141254886795E-146 -2.558465126359667E-146
  -161.648311882938      -2.458700877507052E-145 -8.137065442506076E-145
  -160.857855590112      -2.146828717247507E-143 -8.938935107329558E-144
  -160.067399297286      -5.440224102516846E-142  3.015710162218996E-142
  -159.276943004459      -2.334384150947809E-141  1.602992292287657E-140
  -158.486486711633       2.916566794110229E-139  2.863677477123516E-139
  -157.696030418807       9.781032799602913E-138 -1.781125960879088E-138
  -156.905574125981       9.476500087263480E-137 -2.117562661982124E-136
  -156.115117833155      -2.735991619669284E-135 -4.391038698939442E-135
  -155.324661540329      -1.099350929911211E-133 -3.759047031917174E-135
  -154.534205247503      -1.316246466073672E-132  1.798307954403552E-132
  -153.743748954677       1.384552910631182E-131  4.080764691456502E-131
  -152.953292661851       7.611647798954066E-130  2.408965217009226E-130
  -152.162836369024       1.174691273952861E-128 -8.078495291753310E-129
  -151.372380076198       2.283599449989824E-128 -2.462045212918680E-127
  -150.581923783372      -2.856965194254312E-126 -3.081299742431603E-126
  -149.791467490546      -7.061318807426655E-125 -1.346841243013779E-126
  -149.001011197720      -8.660126410664582E-124  8.086159007028781E-124
  -148.210554904894      -1.576417664485927E-123  1.994256574222271E-122
  -147.420098612068       2.040847235139253E-121  2.747699721771296E-121
  -146.629642319242       5.807756079107062E-120  1.356312135082297E-120
  -145.839186026416       9.479405747811310E-119 -4.775690725424511E-119
  -145.048729733590       7.613173995467340E-118 -1.774331701663843E-117
  -144.258273440763      -1.076702737176562E-116 -3.418502542606331E-116
  -143.467817147937      -5.818885673566171E-115 -3.450974346572116E-115
  -142.677360855111      -1.259839896664162E-113  2.846150833367774E-114
  -141.886904562285      -1.311953784651192E-112  2.100865183116530E-112
  -141.096448269459       1.258316829362663E-111  4.562378041433078E-111
  -140.305991976633       8.098126911747826E-110  3.765841205353462E-110
  -139.515535683807       1.470124472737913E-108 -7.471168548308891E-109
  -138.725079390981       4.654033191098333E-108 -2.915479333050974E-107
  -137.934623098155      -3.703066086332302E-106 -3.479892280164499E-106
  -137.144166805329      -8.094761178962306E-105  2.035790954990806E-105
  -136.353710512502      -3.918984532608255E-104  1.240625187104580E-103
  -135.563254219676       1.265458844158135E-102  1.441066483685920E-102
  -134.772797926850       2.630486256543025E-101 -4.628488365236822E-102
  -133.982341634024       1.321756939495457E-100 -3.262986603142938E-100
  -133.191885341198      -2.507546481908080E-099 -3.629746717153722E-099
  -132.401429048372      -5.292216989954865E-098 -3.941773276727132E-100
  -131.610972755546      -3.741773358938948E-097  4.858372811818471E-097
  -130.820516462720       1.548124812278106E-096  6.758923432899553E-096
  -130.030060169894       6.767513312239007E-095  3.745723377165794E-095
  -129.239603877068       8.231429849483787E-094 -2.504202182613145E-094
  -128.449147584241       4.696993654373674E-093 -8.414314667308526E-093
  -127.658691291415      -2.495497684883381E-092 -1.066776223082158E-091
  -126.868234998589      -1.034672034334919E-090 -7.396456142981800E-091
  -126.077778705763      -1.506566556107915E-089  1.377391816845550E-090
  -125.287322412937      -1.279170328260953E-088  1.329879314524639E-088
  -124.496866120111      -9.271658877588056E-089  2.301661709839683E-087
  -123.706409827285       1.903214931037869E-086  2.228557607473617E-086
  -122.915953534459       3.761003109800644E-085  3.302641382126813E-086
  -122.125497241633       3.659145169423423E-084 -3.236702240357557E-084
  -121.335040948807      -2.876037260732038E-085 -6.289790908234894E-083
  -120.544584655980      -6.232295781273470E-082 -4.979882775528586E-082
  -119.754128363154      -9.539747569178635E-081  2.516253049351188E-081
  -118.963672070328      -3.976658370155554E-080  1.109107428457881E-079
  -118.173215777502       8.207818328880173E-079  1.068039642111313E-078
  -117.382759484676       1.455277913658067E-077 -1.563433619756336E-078
  -116.592303191850       6.236013214683375E-077 -1.368651756667481E-076
  -115.801846899024      -8.373093994339743E-076 -1.193309242274296E-075
  -115.011390606198      -1.329362620875832E-074  9.659862658542636E-076
  -114.220934313372      -5.379782947801425E-074  1.019789184181457E-073
  -113.430478020546       4.540478368344659E-073  8.332978599078364E-073
  -112.640021727719       7.433647717775800E-072  9.280325730031849E-073
  -111.849565434893       4.069021909857638E-071 -4.032919803495863E-071
  -111.059109142067      -2.982856520660667E-071 -4.281947795210210E-070
  -110.268652849241      -2.463206751623189E-069 -2.023832333160503E-069
  -109.478196556415      -2.366273003136073E-068  1.957944598878931E-069
  -108.687740263589      -1.228379564737422E-067  1.304598713463892E-067
  -107.897283970763      -7.133289133790408E-068  1.380377084742283E-066
  -107.106827677937       6.486937184676013E-066  8.842355215290396E-066
  -106.316371385111       8.677056343885663E-065  2.317950740637706E-065
  -105.525915092285       6.936620546774914E-064 -3.096947875470852E-064
  -104.735458799458       2.904461132741700E-063 -5.948703228273822E-063
  -103.945002506632      -1.570287801517577E-062 -5.700193760701213E-062
  -103.154546213806      -4.596579854085915E-061 -2.778426045338316E-061
  -102.364089920980      -4.754244387756129E-060  1.247666413046418E-060
  -101.573633628154      -2.020264752498684E-059  4.001022130218432E-059
  -100.783177335328       1.665797616897467E-058  3.665049604350801E-058
  -99.9927210425018       3.447926433000578E-057  7.127361436645005E-058
  -99.2022647496757       2.111589256091939E-056 -2.082559714081370E-056
  -98.4118084568496      -5.323950320952803E-056 -2.323297775518920E-055
  -97.6213521640235      -1.731948471736764E-054 -5.385730614018955E-055
  -96.8308958711974      -9.435001641000230E-054  8.942768369294978E-054
  -96.0404395783713       2.187430531287762E-053  8.475203632547149E-053
  -95.2499832855452       5.350998315412860E-052  1.426545667994911E-052
  -94.4595269927191       2.350932406364892E-051 -2.319501961280422E-051
  -93.6690706998930      -4.043158556933417E-051 -1.822959330105753E-050
  -92.8786144070669      -9.373364177691438E-050 -3.739805167913324E-050
  -92.0881581142408      -4.491973513099538E-049  2.750313484570899E-049
  -91.2977018214147      -3.746869349107723E-049  2.659014931398963E-048
  -90.5072455285886       8.648224743073574E-048  1.041365326357440E-047
  -89.7167892357625       6.800420608174167E-047  6.191574316881791E-048
  -88.9263329429364       2.763596082050558E-046 -2.124167456072178E-046
  -88.1358766501103       3.652395480118420E-046 -1.780409324790302E-045
  -87.3454203572842      -4.570448627023986E-045 -8.613025730979341E-045
  -86.5549640644581      -4.970578006100263E-044 -2.126037549601711E-044
  -85.7645077716320      -2.985319828733900E-043  8.435647337987963E-044
  -84.9740514788059      -1.042850149068228E-042  1.515037645231245E-042
  -84.1835951859798       1.275713269013165E-042  1.114172007748419E-041
  -83.3931388931537       5.312776327839635E-041  4.528725165262260E-041
  -82.6026826003276       4.378735576064417E-040 -3.801726887080366E-041
  -81.8122263075015       1.664628047628606E-039 -2.212072121651926E-039
  -81.0217700146754      -4.143614641464133E-039 -1.673847550083136E-038
  -80.2313137218493      -9.699917031385434E-038 -4.014381032515480E-038
  -79.4408574290232      -5.141251133260912E-037  3.425766981005002E-037
  -78.6504011361971       1.238743123699261E-037  3.478475743477859E-036
  -77.8599448433710       1.646681664126450E-035  8.701663877568545E-036
  -77.0694885505449       7.851941639468922E-035 -5.187140745877110E-035
  -76.2790322577188      -4.168914031316541E-035 -4.455764906204899E-034
  -75.4885759648927      -1.845188739525232E-033 -7.753566163990198E-034
  -74.6981196720666      -6.607113797946637E-033  5.241063697958871E-033
  -73.9076633792405       4.924348040070572E-033  3.325856760801142E-032
  -73.1172070864144       1.172319298019100E-031  5.046192638557560E-032
  -72.3267507935883       3.905793526292234E-031 -2.526437133509889E-031
  -71.5362945007622       9.428010395150463E-032 -1.640654435864095E-030
  -70.7458382079361      -4.227570713604491E-030 -3.803079659522394E-030
  -69.9553819151100      -1.933820011674171E-029  2.326313130227398E-030
  -69.1649256222839      -3.979745093076357E-029  5.354465977868189E-029
  -68.3744693294578       3.162908976644845E-029  2.284088565240817E-028
  -67.5840130366317       6.278255446146324E-028  5.121274068675145E-028
  -66.7935567438056       2.906299775245854E-027 -1.329051699041627E-028
  -66.0031004509795       7.713342630561648E-027 -7.425572372923253E-027
  -65.2126441581534       3.348848761021279E-027 -4.025357431353280E-026
  -64.4221878653272      -9.415395890689520E-026 -1.242141773176748E-025
  -63.6317315725012      -6.033907437829760E-025 -1.048269169634109E-025
  -62.8412752796751      -2.004803403793841E-024  1.381877137969084E-024
  -62.0508189868490      -1.565450391095834E-024  9.595217855748358E-024
  -61.2603626940229       2.420638678115644E-023  3.015127447318088E-023
  -60.4699064011968       1.518843826403577E-022  3.518968620539501E-024
  -59.6794501083707       3.731951450737927E-022 -4.508282854118882E-022
  -58.8889938155445      -5.198515121756869E-022 -2.133342453170098E-021
  -58.0985375227184      -7.417784504717645E-021 -2.945084429910985E-021
  -57.3080812298923      -2.320639991499810E-020  1.566431709768117E-020
  -56.5176249370662       6.262662787691491E-022  9.459309328548870E-020
  -55.7271686442401       2.582454242547317E-019  1.671392248909709E-019
  -54.9367123514140       8.814342786807876E-019 -3.893348517229749E-019
  -54.1462560585879       4.894293260414617E-019 -2.872047402248218E-018
  -53.3557997657618      -6.171066702764262E-018 -5.886152194163153E-018
  -52.5653434729357      -2.375028067076762E-017  4.934377116555715E-018
  -51.7748871801096      -2.697971605946533E-017  6.168505632069684E-017
  -50.9844308872835       9.222853679924309E-017  1.582112726479906E-016
  -50.1939745944574       4.869022564815654E-016  5.664868773179499E-017
  -49.4035183016313       9.026741574132900E-016 -9.298729701084843E-016
  -48.6130620088052      -4.640348923862207E-016 -3.362033482070625E-015
  -47.8226057159791      -7.607054396184825E-015 -4.464855639710877E-015
  -47.0321494231530      -2.121211152912748E-014  8.257444660676679E-015
  -46.2416931303269      -1.691791619695017E-014  5.577124153323491E-014
  -45.4512368375008       8.548112448508448E-014  1.204788387767673E-013
  -44.6607805446747       3.692153618025042E-013  1.216447153255449E-014
  -43.8703242518486       5.652940751620904E-013 -7.099545117289044E-013
  -43.0798679590225      -5.795417863527188E-013 -2.101311930454114E-012
  -42.2894116661964      -4.783067669281059E-012 -1.755739418643937E-012
  -41.4989553733703      -9.509264186600976E-012  6.545304198456107E-012
  -40.7084990805442      -3.416443076932324E-013  2.528019791508720E-011
  -39.9180427877181       4.300933682264987E-011  3.175246721617979E-011
  -39.1275864948920       1.043466329223389E-010 -3.228260322355147E-011
  -38.3371302020659       7.478554859505404E-011 -2.028702759771874E-010
  -37.5466739092398      -2.144583659006955E-010 -3.571291939968531E-010
  -36.7562176164137      -7.754362051894023E-010 -1.278816445625879E-010
  -35.9657613235876      -1.142767444531146E-009  9.122139667596488E-010
  -35.1753050307615      -2.415587087901312E-010  2.692409052670174E-009
  -34.3848487379354       3.187251647061993E-009  3.856253117783608E-009
  -33.5943924451093       9.261137605404550E-009  1.149240233775057E-009
  -32.8039361522832       1.440993876142707E-008 -1.018321829423577E-008
  -32.0134798594571       7.677560609647475E-009 -3.308025012969781E-008
  -31.2230235666310      -3.175005405153630E-008 -5.865163145078551E-008
  -30.4325672738049      -1.258405694028595E-007 -4.529197886427840E-008
  -29.6421109809788      -2.522344995127544E-007  1.057412355550527E-007
  -28.8516546881527      -2.266518300501504E-007  5.214175554811548E-007
  -28.0611983953266       4.460883745025111E-007  1.108994523058604E-006
  -27.2707421025005       2.361916490713607E-006  8.915329683317747E-007
  -26.4802858096744       4.645409445515340E-006 -2.575145090502304E-006
  -25.6898295168483       1.702784797353818E-006 -1.089258806856958E-005
  -24.8993732240222      -1.598651274439517E-005 -1.560712768007080E-005
  -24.1089169311961      -4.267422972570914E-005  9.535164000373395E-006
  -23.3184606383700      -2.588506079198058E-005  7.759294717203629E-005
  -22.5280043455439       9.716340665027832E-005  1.074957697151493E-004
  -21.7375480527178       2.344673265398986E-004 -5.706955850114867E-005
  -20.9470917598917       9.381736469264165E-005 -3.641949277753135E-004
  -20.1566354670656      -4.003589317224361E-004 -3.739248695183604E-004
  -19.3661791742395      -7.146284187218483E-004  2.196547155859616E-004
  -18.5757228814134      -2.458154733376820E-004  9.298513283984358E-004
  -17.7852665885873       7.666868781491379E-004  8.938160690002017E-004
  -16.9948102957612       1.387631984585141E-003 -6.976273753891354E-005
  -16.2043540029351       9.942510232204198E-004 -1.257055390026289E-003
  -15.4138977101090      -2.199033358659617E-004 -1.822676650093560E-003
  -14.6234414172829      -1.593031375219336E-003 -1.400275379857662E-003
  -13.8329851244568      -2.504923167879106E-003 -1.123493881204111E-004
  -13.0425288316307      -2.556698607592624E-003  1.703225816577410E-003
  -12.2520725388046      -1.469255797928954E-003  3.656088173190212E-003
  -11.4616162459785       1.067697364084707E-003  5.219999260997078E-003
  -10.6711599531524       5.383813261531603E-003  5.397987081388775E-003
  -9.88070366032627       1.133904298562895E-002  2.178180378368842E-003
  -9.09024736750017       1.670907423459778E-002 -7.820184377870135E-003
  -8.29979107467407       1.370808177523545E-002 -2.768339581499434E-002
  -7.50933478184796      -1.446939790643849E-002 -5.168956990587768E-002
  -6.71887848902186      -8.411973333133126E-002 -4.531637465264012E-002
  -5.92842219619576      -0.158743993151402       6.513288917891179E-002
  -5.13796590336966      -6.451430164730054E-002  0.298595381884746     
  -4.34750961054356       0.394956293529139       0.352250471132138     
  -3.55705331771746       0.802455311599051      -0.349496255928358     
  -2.76659702489135      -7.529173584525024E-002  -1.35473577793491     
  -1.97614073206525       -1.88591718088523      -0.451203900548396     
  -1.18568443923915       -1.15439700181446        2.24059504977627     
 -0.395228146413051        2.28390131957578        1.86852147509085     
  0.395228146413051        2.28390131957578       -1.86852147509085     
   1.18568443923915       -1.15439700181446       -2.24059504977627     
   1.97614073206525       -1.88591718088523       0.451203900548396     
   2.76659702489135      -7.529173584525024E-002   1.35473577793491     
   3.55705331771746       0.802455311599051       0.349496255928358     
   4.34750961054356       0.394956293529139      -0.352250471132138     
   5.13796590336966      -6.451430164730054E-002 -0.298595381884746     
   5.92842219619576      -0.158743993151402      -6.513288917891179E-002
   6.71887848902186      -8.411973333133126E-002  4.531637465264012E-002
   7.50933478184796      -1.446939790643849E-002  5.168956990587768E-002
   8.29979107467407       1.370808177523545E-002  2.768339581499434E-002
   9.09024736750017       1.670907423459778E-002  7.820184377870135E-003
   9.88070366032627       1.133904298562895E-002 -2.178180378368842E-003
   10.6711599531524       5.383813261531603E-003 -5.397987081388775E-003
   11.4616162459785       1.067697364084707E-003 -5.219999260997078E-003
   12.2520725388046      -1.469255797928954E-003 -3.656088173190212E-003
   13.0425288316307      -2.556698607592624E-003 -1.703225816577410E-003
   13.8329851244568      -2.504923167879106E-003  1.123493881204111E-004
   14.6234414172829      -1.593031375219336E-003  1.400275379857662E-003
   15.4138977101090      -2.199033358659617E-004  1.822676650093560E-003
   16.2043540029351       9.942510232204198E-004  1.257055390026289E-003
   16.9948102957612       1.387631984585141E-003  6.976273753891354E-005
   17.7852665885873       7.666868781491379E-004 -8.938160690002017E-004
   18.5757228814134      -2.458154733376820E-004 -9.298513283984358E-004
   19.3661791742395      -7.146284187218483E-004 -2.196547155859616E-004
   20.1566354670656      -4.003589317224361E-004  3.739248695183604E-004
   20.9470917598917       9.381736469264165E-005  3.641949277753135E-004
   21.7375480527178       2.344673265398986E-004  5.706955850114867E-005
   22.5280043455439       9.716340665027832E-005 -1.074957697151493E-004
   23.3184606383700      -2.588506079198058E-005 -7.759294717203629E-005
   24.1089169311961      -4.267422972570914E-005 -9.535164000373395E-006
   24.8993732240222      -1.598651274439517E-005  1.560712768007080E-005
   25.6898295168483       1.702784797353818E-006  1.089258806856958E-005
   26.4802858096744       4.645409445515340E-006  2.575145090502304E-006
   27.2707421025005       2.361916490713607E-006 -8.915329683317747E-007
   28.0611983953266       4.460883745025111E-007 -1.108994523058604E-006
   28.8516546881527      -2.266518300501504E-007 -5.214175554811548E-007
   29.6421109809788      -2.522344995127544E-007 -1.057412355550527E-007
   30.4325672738049      -1.258405694028595E-007  4.529197886427840E-008
   31.2230235666310      -3.175005405153630E-008  5.865163145078551E-008
   32.0134798594571       7.677560609647475E-009  3.308025012969781E-008
   32.8039361522832       1.440993876142707E-008  1.018321829423577E-008
   33.5943924451093       9.261137605404550E-009 -1.149240233775057E-009
   34.3848487379354       3.187251647061993E-009 -3.856253117783608E-009
   35.1753050307615      -2.415587087901312E-010 -2.692409052670174E-009
   35.9657613235876      -1.142767444531146E-009 -9.122139667596488E-010
   36.7562176164137      -7.754362051894023E-010  1.278816445625879E-010
   37.5466739092398      -2.144583659006955E-010  3.571291939968531E-010
   38.3371302020659       7.478554859505404E-011  2.028702759771874E-010
   39.1275864948920       1.043466329223389E-010  3.228260322355147E-011
   39.9180427877181       4.300933682264987E-011 -3.175246721617979E-011
   40.7084990805442      -3.416443076932324E-013 -2.528019791508720E-011
   41.4989553733703      -9.509264186600976E-012 -6.545304198456107E-012
   42.2894116661964      -4.783067669281059E-012  1.755739418643937E-012
   43.0798679590225      -5.795417863527188E-013  2.101311930454114E-012
   43.8703242518486       5.652940751620904E-013  7.099545117289044E-013
   44.6607805446747       3.692153618025042E-013 -1.216447153255449E-014
   45.4512368375008       8.548112448508448E-014 -1.204788387767673E-013
   46.2416931303269      -1.691791619695017E-014 -5.577124153323491E-014
   47.0321494231530      -2.121211152912748E-014 -8.257444660676679E-015
   47.8226057159791      -7.607054396184825E-015  4.464855639710877E-015
   48.6130620088052      -4.640348923862207E-016  3.362033482070625E-015
   49.4035183016313       9.026741574132900E-016  9.298729701084843E-016
   50.1939745944574       4.869022564815654E-016 -5.664868773179499E-017
   50.9844308872835       9.222853679924309E-017 -1.582112726479906E-016
   51.7748871801096      -2.697971605946533E-017 -6.168505632069684E-017
   52.5653434729357      -2.375028067076762E-017 -4.934377116555715E-018
   53.3557997657618      -6.171066702764262E-018  5.886152194163153E-018
   54.1462560585879       4.894293260414617E-019  2.872047402248218E-018
   54.9367123514140       8.814342786807876E-019  3.893348517229749E-019
   55.7271686442401       2.582454242547317E-019 -1.671392248909709E-019
   56.5176249370662       6.262662787691491E-022 -9.459309328548870E-020
   57.3080812298923      -2.320639991499810E-020 -1.566431709768117E-020
   58.0985375227184      -7.417784504717645E-021  2.945084429910985E-021
   58.8889938155446      -5.198515121756869E-022  2.133342453170098E-021
   59.6794501083707       3.731951450737927E-022  4.508282854118882E-022
   60.4699064011968       1.518843826403577E-022 -3.518968620539501E-024
   61.2603626940229       2.420638678115644E-023 -3.015127447318088E-023
   62.0508189868490      -1.565450391095834E-024 -9.595217855748358E-024
   62.8412752796751      -2.004803403793841E-024 -1.381877137969084E-024
   63.6317315725012      -6.033907437829760E-025  1.048269169634109E-025
   64.4221878653273      -9.415395890689520E-026  1.242141773176748E-025
   65.2126441581534       3.348848761021279E-027  4.025357431353280E-026
   66.0031004509795       7.713342630561648E-027  7.425572372923253E-027
   66.7935567438056       2.906299775245854E-027  1.329051699041627E-028
   67.5840130366317       6.278255446146324E-028 -5.121274068675145E-028
   68.3744693294578       3.162908976644845E-029 -2.284088565240817E-028
   69.1649256222839      -3.979745093076357E-029 -5.354465977868189E-029
   69.9553819151100      -1.933820011674171E-029 -2.326313130227398E-030
   70.7458382079361      -4.227570713604491E-030  3.803079659522394E-030
   71.5362945007622       9.428010395150463E-032  1.640654435864095E-030
   72.3267507935883       3.905793526292234E-031  2.526437133509889E-031
   73.1172070864144       1.172319298019100E-031 -5.046192638557560E-032
   73.9076633792405       4.924348040070572E-033 -3.325856760801142E-032
   74.6981196720666      -6.607113797946637E-033 -5.241063697958871E-033
   75.4885759648927      -1.845188739525232E-033  7.753566163990198E-034
   76.2790322577188      -4.168914031316541E-035  4.455764906204899E-034
   77.0694885505449       7.851941639468922E-035  5.187140745877110E-035
   77.8599448433710       1.646681664126450E-035 -8.701663877568545E-036
   78.6504011361971       1.238743123699261E-037 -3.478475743477859E-036
   79.4408574290232      -5.141251133260912E-037 -3.425766981005002E-037
   80.2313137218493      -9.699917031385434E-038  4.014381032515480E-038
   81.0217700146754      -4.143614641464133E-039  1.673847550083136E-038
   81.8122263075015       1.664628047628606E-039  2.212072121651926E-039
   82.6026826003276       4.378735576064417E-040  3.801726887080366E-041
   83.3931388931537       5.312776327839635E-041 -4.528725165262260E-041
   84.1835951859798       1.275713269013165E-042 -1.114172007748419E-041
   84.9740514788059      -1.042850149068228E-042 -1.515037645231245E-042
   85.7645077716320      -2.985319828733900E-043 -8.435647337987963E-044
   86.5549640644581      -4.970578006100263E-044  2.126037549601711E-044
   87.3454203572842      -4.570448627023986E-045  8.613025730979341E-045
   88.1358766501103       3.652395480118420E-046  1.780409324790302E-045
   88.9263329429364       2.763596082050558E-046  2.124167456072178E-046
   89.7167892357625       6.800420608174167E-047 -6.191574316881791E-048
   90.5072455285886       8.648224743073574E-048 -1.041365326357440E-047
   91.2977018214147      -3.746869349107723E-049 -2.659014931398963E-048
   92.0881581142408      -4.491973513099538E-049 -2.750313484570899E-049
   92.8786144070669      -9.373364177691438E-050  3.739805167913324E-050
   93.6690706998930      -4.043158556933417E-051  1.822959330105753E-050
   94.4595269927191       2.350932406364892E-051  2.319501961280422E-051
   95.2499832855452       5.350998315412860E-052 -1.426545667994911E-052
   96.0404395783713       2.187430531287762E-053 -8.475203632547149E-053
   96.8308958711974      -9.435001641000230E-054 -8.942768369294978E-054
   97.6213521640235      -1.731948471736764E-054  5.385730614018955E-055
   98.4118084568496      -5.323950320952803E-056  2.323297775518920E-055
   99.2022647496757       2.111589256091939E-056  2.082559714081370E-056
   99.9927210425018       3.447926433000578E-057 -7.127361436645005E-058
   100.783177335328       1.665797616897467E-058 -3.665049604350801E-058
   101.573633628154      -2.020264752498684E-059 -4.001022130218432E-059
   102.364089920980      -4.754244387756129E-060 -1.247666413046418E-060
   103.154546213806      -4.596579854085915E-061  2.778426045338316E-061
   103.945002506632      -1.570287801517577E-062  5.700193760701213E-062
   104.735458799458       2.904461132741700E-063  5.948703228273822E-063
   105.525915092285       6.936620546774914E-064  3.096947875470852E-064
   106.316371385111       8.677056343885663E-065 -2.317950740637706E-065
   107.106827677937       6.486937184676013E-066 -8.842355215290396E-066
   107.897283970763      -7.133289133790408E-068 -1.380377084742283E-066
   108.687740263589      -1.228379564737422E-067 -1.304598713463892E-067
   109.478196556415      -2.366273003136073E-068 -1.957944598878931E-069
   110.268652849241      -2.463206751623189E-069  2.023832333160503E-069
   111.059109142067      -2.982856520660667E-071  4.281947795210210E-070
   111.849565434893       4.069021909857638E-071  4.032919803495863E-071
   112.640021727719       7.433647717775800E-072 -9.280325730031849E-073
   113.430478020546       4.540478368344659E-073 -8.332978599078364E-073
   114.220934313372      -5.379782947801425E-074 -1.019789184181457E-073
   115.011390606198      -1.329362620875832E-074 -9.659862658542636E-076
   115.801846899024      -8.373093994339743E-076  1.193309242274296E-075
   116.592303191850       6.236013214683375E-077  1.368651756667481E-076
   117.382759484676       1.455277913658067E-077  1.563433619756336E-078
   118.173215777502       8.207818328880173E-079 -1.068039642111313E-078
   118.963672070328      -3.976658370155554E-080 -1.109107428457881E-079
   119.754128363154      -9.539747569178635E-081 -2.516253049351188E-081
   120.544584655980      -6.232295781273470E-082  4.979882775528586E-082
   121.335040948807      -2.876037260732038E-085  6.289790908234894E-083
   122.125497241633       3.659145169423423E-084  3.236702240357557E-084
   122.915953534459       3.761003109800644E-085 -3.302641382126813E-086
   123.706409827285       1.903214931037869E-086 -2.228557607473617E-086
   124.496866120111      -9.271658877588056E-089 -2.301661709839683E-087
   125.287322412937      -1.279170328260953E-088 -1.329879314524639E-088
   126.077778705763      -1.506566556107915E-089 -1.377391816845550E-090
   126.868234998589      -1.034672034334919E-090  7.396456142981800E-091
   127.658691291415      -2.495497684883381E-092  1.066776223082158E-091
   128.449147584241       4.696993654373674E-093  8.414314667308526E-093
   129.239603877068       8.231429849483787E-094  2.504202182613145E-094
   130.030060169894       6.767513312239007E-095 -3.745723377165794E-095
   130.820516462720       1.548124812278106E-096 -6.758923432899553E-096
   131.610972755546      -3.741773358938948E-097 -4.858372811818471E-097
   132.401429048372      -5.292216989954865E-098  3.941773276727132E-100
   133.191885341198      -2.507546481908080E-099  3.629746717153722E-099
   133.982341634024       1.321756939495457E-100  3.262986603142938E-100
   134.772797926850       2.630486256543025E-101  4.628488365236822E-102
   135.563254219676       1.265458844158135E-102 -1.441066483685920E-102
   136.353710512502      -3.918984532608255E-104 -1.240625187104580E-103
   137.144166805329      -8.094761178962306E-105 -2.035790954990806E-105
   137.934623098155      -3.703066086332302E-106  3.479892280164499E-106
   138.725079390981       4.654033191098333E-108  2.915479333050974E-107
   139.515535683807       1.470124472737913E-108  7.471168548308891E-109
   140.305991976633       8.098126911747826E-110 -3.765841205353462E-110
   141.096448269459       1.258316829362663E-111 -4.562378041433078E-111
   141.886904562285      -1.311953784651192E-112 -2.100865183116530E-112
   142.677360855111      -1.259839896664162E-113 -2.846150833367774E-114
   143.467817147937      -5.818885673566171E-115  3.450974346572116E-115
   144.258273440764      -1.076702737176562E-116  3.418502542606331E-116
   145.048729733590       7.613173995467340E-118  1.774331701663843E-117
   145.839186026416       9.479405747811310E-119  4.775690725424511E-119
   146.629642319242       5.807756079107062E-120 -1.356312135082297E-120
   147.420098612068       2.040847235139253E-121 -2.747699721771296E-121
   148.210554904894      -1.576417664485927E-123 -1.994256574222271E-122
   149.001011197720      -8.660126410664582E-124 -8.086159007028781E-124
   149.791467490546      -7.061318807426655E-125  1.346841243013779E-126
   150.581923783372      -2.856965194254312E-126  3.081299742431603E-126
   151.372380076198       2.283599449989824E-128  2.462045212918680E-127
   152.162836369024       1.174691273952861E-128  8.078495291753310E-129
   152.953292661851       7.611647798954066E-130 -2.408965217009226E-130
   153.743748954677       1.384552910631182E-131 -4.080764691456502E-131
   154.534205247503      -1.316246466073672E-132 -1.798307954403552E-132
   155.324661540329      -1.099350929911211E-133  3.759047031917174E-135
   156.115117833155      -2.735991619669284E-135  4.391038698939442E-135
   156.905574125981       9.476500087263480E-137  2.117562661982124E-136
   157.696030418807       9.781032799602913E-138  1.781125960879088E-138
   158.486486711633       2.916566794110229E-139 -2.863677477123516E-139
   159.276943004459      -2.334384150947809E-141 -1.602992292287657E-140
   160.067399297286      -5.440224102516846E-142 -3.015710162218996E-142
   160.857855590112      -2.146828717247507E-143  8.938935107329558E-144
   161.648311882938      -2.458700877507052E-145  8.137065442506076E-145
   162.438768175764       1.655141254886795E-146  2.558465126359667E-146
   163.229224468590       1.062334085931519E-147  1.500739457904237E-148
   164.019680761416       2.815446258814759E-149 -2.414859394449943E-149
   164.810137054242       1.840045210203768E-152 -1.255962887392082E-150
   165.600593347068      -3.074058480655327E-152 -2.781388978680595E-152
   166.391049639894      -1.312613464760747E-153  1.609356574409101E-154
   167.181505932720      -2.205693171185873E-155  3.368386381853121E-155
   167.971962225547       3.437209444791785E-157  1.095128524971441E-156
   168.762418518373       2.775754370655763E-158  1.063368149310793E-158
   169.552874811199       5.644733836997640E-160 -3.480898401461920E-160
   170.343331104025       9.462779732692059E-163 -1.135279955283881E-161
   171.133787396851      -8.124100236920508E-164 -6.912472339225358E-164
   171.924243689677      -5.737637956591489E-192  1.486157893343674E-192
