  -516.561975005580      -2.851066612137895E-048 -1.254855067228173E-048
  -515.769094000199      -5.307092263205894E-022  1.638188640532657E-022
  -514.976212994818      -1.046969806234971E-021  1.496335894658914E-021
  -514.183331989437       1.998522223381568E-023  3.538028161210486E-021
  -513.390450984057       3.173812680784649E-021  4.762494721129599E-021
  -512.597569978676       7.892818264796902E-021  3.545186888460915E-021
  -511.804688973295       1.275205476124452E-020 -1.682382052029095E-021
  -511.011807967914       1.485458383115164E-020 -1.229769230985719E-020
  -510.218926962534       8.655381960717432E-021 -2.820585819376294E-020
  -509.426045957153      -1.445092753205104E-020 -4.388608910347277E-020
  -508.633164951772      -6.130184999817511E-020 -4.117247565200922E-020
  -507.840283946391      -1.186684899488680E-019  1.475425711234689E-020
  -507.047402941010      -1.210551424001412E-019  1.519121562833194E-019
  -506.254521935630       5.057718028581010E-020  3.087447975046732E-019
  -505.461640930249       4.299247596453489E-019  2.427102402922357E-019
  -504.668759924868       6.844648390465509E-019 -3.180120229364363E-019
  -503.875878919487       1.546951193115494E-019 -1.095943066836057E-018
  -503.082997914107      -1.202954253003719E-018 -9.696680834613599E-019
  -502.290116908726      -1.897074958980845E-018  7.574426204536895E-019
  -501.497235903345      -3.025480877044823E-019  2.533108561561345E-018
  -500.704354897964       2.457197951770103E-018  1.739180829497277E-018
  -499.911473892583       3.033692950205806E-018 -1.457847118350997E-018
  -499.118592887203       2.836792726095429E-019 -3.572278390445666E-018
  -498.325711881822      -2.943853170097823E-018 -2.172771025795457E-018
  -497.532830876441      -3.404674829211180E-018  1.211149162775091E-018
  -496.739949871060      -1.007942950455028E-018  3.337850150304099E-018
  -495.947068865680       1.869380007727146E-018  2.745964712239298E-018
  -495.154187860299       3.133983603309090E-018  4.016186401951207E-019
  -494.361306854918       2.368300816349163E-018 -1.894696837570617E-018
  -493.568425849537       3.933856188868942E-019 -2.941719994347558E-018
  -492.775544844156      -1.680534037345730E-018 -2.469129434055958E-018
  -491.982663838776      -3.002511624061316E-018 -8.206432294078797E-019
  -491.189782833395      -3.074210634740596E-018  1.392317583017170E-018
  -490.396901828014      -1.683932377734761E-018  3.422807657979485E-018
  -489.604020822633       1.059117263458944E-018  4.365330413043397E-018
  -488.811139817252       4.468080617364717E-018  3.194336960379006E-018
  -488.018258811872       6.886782406982489E-018 -8.089781855134461E-019
  -487.225377806491       5.669137926418817E-018 -6.952870577030718E-018
  -486.432496801110      -1.440072916831100E-018 -1.170282325544876E-017
  -485.639615795729      -1.284605351364710E-017 -8.849503704236715E-018
  -484.846734790349      -1.978273980709980E-017  5.692017803559041E-018
  -484.053853784968      -9.755610507907304E-018  2.504014291449249E-017
  -483.260972779587       1.886028422976843E-017  2.884276554838210E-017
  -482.468091774206       4.316814264653385E-017  6.507068231787018E-019
  -481.675210768825       2.926324532007016E-017 -4.375174638099058E-017
  -480.882329763445      -2.541390466182967E-017 -5.689899577575491E-017
  -480.089448758064      -7.095132790766899E-017 -9.591247406801975E-018
  -479.296567752683      -5.072639104445212E-017  6.170850911060193E-017
  -478.503686747302       2.764077273487261E-017  8.218335737395876E-017
  -477.710805741921       8.910886871100052E-017  2.210856134768056E-017
  -476.917924736541       6.983380743252431E-017 -6.464227835243252E-017
  -476.125043731160      -1.448303871141572E-017 -9.584224155067972E-017
  -475.332162725779      -8.711211704842703E-017 -4.368244719693724E-017
  -474.539281720398      -8.649567670804791E-017  4.419683855629735E-017
  -473.746400715018      -1.724299098278690E-017  9.485071330021991E-017
  -472.953519709637       6.317519334243499E-017  7.182905038805792E-017
  -472.160638704256       9.514855277749913E-017 -3.483182775422778E-018
  -471.367757698875       5.846892685365996E-017 -7.525249021966998E-017
  -470.574876693494      -1.946386258291614E-017 -9.405291223024930E-017
  -469.781995688114      -8.518650066648091E-017 -4.741300871686161E-017
  -468.989114682733      -9.360050911944472E-017  3.397038890670475E-017
  -468.196233677352      -3.667565426507576E-017  9.532904258275052E-017
  -467.403352671971       4.926993569739487E-017  9.268576361073152E-017
  -466.610471666591       1.050491293523647E-016  2.414524162694818E-017
  -465.817590661210       8.918823731873489E-017 -6.496439505855690E-017
  -465.024709655829       9.978406672802471E-018 -1.119745785291103E-016
  -464.231828650448      -7.828599138369292E-017 -8.277316809581399E-017
  -463.438947645067      -1.148958740322558E-016  2.768173281675100E-018
  -462.646066639687      -7.635541639664930E-017  8.682472896762879E-017
  -461.853185634306       1.044543738631533E-017  1.158852113223851E-016
  -461.060304628925       9.104727298327046E-017  7.438644221844224E-017
  -460.267423623544       1.192418436387683E-016 -1.142690000846796E-017
  -459.474542618163       8.043130563766845E-017 -9.382250343756609E-017
  -458.681661612783      -6.004073427495572E-018 -1.294437535595736E-016
  -457.888780607402      -9.874030613712228E-017 -9.717333906883685E-017
  -457.095899602021      -1.512454202579304E-016 -5.159888828465388E-018
  -456.303018596640      -1.282193160495022E-016  1.102485809121443E-016
  -455.510137591260      -2.129414823058764E-017  1.921074950445981E-016
  -454.717256585879       1.367407286825866E-016  1.796155858435930E-016
  -453.924375580498       2.660564930479666E-016  3.843125854941875E-017
  -453.131494575117       2.584042195311103E-016 -1.976781613469544E-016
  -452.338613569736       3.891206297988184E-017 -3.966314357933196E-016
  -451.545732564356      -3.345674201880138E-016 -3.602252443576045E-016
  -450.752851558975      -6.063758602956481E-016  3.157604791438871E-017
  -449.959970553594      -4.310232782886073E-016  6.089740225190079E-016
  -449.167089548213       2.801062283363058E-016  8.615828900646415E-016
  -448.374208542832       1.031433761780813E-015  3.207943860999121E-016
  -447.581327537452       9.824357303346399E-016 -7.841324370531755E-016
  -446.788446532071      -1.306891831572125E-016 -1.414774961609347E-015
  -445.995565526690      -1.377142024132923E-015 -7.215574692921993E-016
  -445.202684521309      -1.433964104994462E-015  8.057101212130098E-016
  -444.409803515929      -1.252512207525287E-016  1.679216695964810E-015
  -443.616922510548       1.302092009562358E-015  1.051219615726595E-015
  -442.824041505167       1.568098023366122E-015 -4.191586738249830E-016
  -442.031160499786       6.034703462160454E-016 -1.425058190132822E-015
  -441.238279494405      -6.669171533041882E-016 -1.301904649086644E-015
  -440.445398489025      -1.336985538787222E-015 -3.553706465962495E-016
  -439.652517483644      -1.131567004338956E-015  6.821057780467738E-016
  -438.859636478263      -3.279900736496003E-016  1.242917908085019E-015
  -438.066755472882       5.993436542649005E-016  1.135150735986537E-015
  -437.273874467502       1.238393097968618E-015  4.670752450110345E-016
  -436.480993462121       1.327780887546660E-015 -4.884590027751077E-016
  -435.688112456740       7.631922477643738E-016 -1.373043211352785E-015
  -434.895231451359      -3.786953004083467E-016 -1.771459199286668E-015
  -434.102350445978      -1.753484534596085E-015 -1.268964858582670E-015
  -433.309469440598      -2.645413213581666E-015  3.492870484881249E-016
  -432.516588435217      -2.043776529777070E-015  2.683922295632854E-015
  -431.723707429836       7.531902201295746E-016  4.274881501574465E-015
  -430.930826424455       4.859066933650855E-015  2.853400702586869E-015
  -430.137945419075       6.798601788867287E-015 -2.686006596196036E-015
  -429.345064413694       2.286359702727888E-015 -9.100828313861152E-015
  -428.552183408313      -7.964137516359123E-015 -8.714560295114932E-015
  -427.759302402932      -1.417223164984398E-014  2.711842050897012E-015
  -426.966421397551      -5.621383629158502E-015  1.605172891516337E-014
  -426.173540392171       1.274006608643943E-014  1.439961028122722E-014
  -425.380659386790       2.027747101774812E-014 -4.548184065789503E-015
  -424.587778381409       6.098775574151271E-015 -2.058225378546934E-014
  -423.794897376028      -1.460520628130347E-014 -1.542452520410827E-014
  -423.002016370648      -1.980216960041957E-014  4.171416797900571E-015
  -422.209135365267      -6.888110756148117E-015  1.738382364400900E-014
  -421.416254359886       9.098043115522128E-015  1.425930964708410E-014
  -420.623373354505       1.505990429764850E-014  1.545284683993783E-015
  -419.830492349124       9.894393105936687E-015 -9.268954777283177E-015
  -419.037611343744       8.372803138285712E-017 -1.228361504253935E-014
  -418.244730338363      -7.878128162432329E-015 -8.205977131575332E-015
  -417.451849332982      -1.083717172685363E-014 -7.222995663745200E-016
  -416.658968327601      -8.577584687079472E-015  6.502936234579234E-015
  -415.866087322220      -2.437528471086929E-015  1.085075659595281E-014
  -415.073206316840       5.505464896456381E-015  1.066314954580953E-014
  -414.280325311459       1.250134893154626E-014  5.133025506893273E-015
  -413.487444306078       1.496668207194329E-014 -5.158706796378696E-015
  -412.694563300697       9.055482895131987E-015 -1.691352289458517E-014
  -411.901682295317      -6.798065305217051E-015 -2.288877319497387E-014
  -411.108801289936      -2.705650349085246E-014 -1.352825811500919E-014
  -410.315920284555      -3.564644537299364E-014  1.489996623544273E-014
  -409.523039279174      -1.330696360919882E-014  4.741241468373934E-014
  -408.730158273793       3.838955163666138E-014  4.871131533437252E-014
  -407.937277268413       7.627091652320238E-014 -5.604715734617454E-015
  -407.144396263032       4.322080566685468E-014 -8.076233904806338E-014
  -406.351515257651      -5.409369153963180E-014 -9.105978557243459E-014
  -405.558634252270      -1.177476072266272E-013  5.512007188940852E-016
  -404.765753246890      -6.294456126358588E-014  1.087531076654009E-013
  -403.972872241509       6.273384066162959E-014  1.125253591201617E-013
  -403.179991236128       1.272005661944912E-013  5.955048186640584E-015
  -402.387110230747       7.175359669205393E-014 -9.872106251992524E-014
  -401.594229225366      -3.675657345339542E-014 -1.082237998292460E-013
  -400.801348219986      -1.000332133151333E-013 -3.373099734549691E-014
  -400.008467214605      -8.265884684111345E-014  5.103087020979954E-014
  -399.215586209224      -1.598875866238240E-014  8.854848597984674E-014
  -398.422705203843       4.953033228284388E-014  6.873672494904753E-014
  -397.629824198462       8.055943775095871E-014  1.413734037783770E-014
  -396.836943193082       6.834803832688743E-014 -4.441138093537324E-014
  -396.044062187701       2.151401688958841E-014 -8.144319694270427E-014
  -395.251181182320      -4.131699529467376E-014 -8.047544218110352E-014
  -394.458300176939      -9.450687456974410E-014 -3.531747756984760E-014
  -393.665419171558      -1.074386313854681E-013  4.503187793658609E-014
  -392.872538166178      -5.336170732832944E-014  1.278281827993060E-013
  -392.079657160797       6.765509667964292E-014  1.542142958686015E-013
  -391.286776155416       1.974333943504940E-013  6.402535351193750E-014
  -390.493895150035       2.167092984332619E-013 -1.380750933513780E-013
  -389.701014144655       2.709649734271725E-014 -3.154034541614516E-013
  -388.908133139274      -2.931470888739405E-013 -2.490025522343378E-013
  -388.115252133893      -4.395965870238736E-013  1.255809528618123E-013
  -387.322371128512      -1.491176897092789E-013  5.065821856694996E-013
  -386.529490123131       3.960065071606798E-013  4.370114025394951E-013
  -385.736609117751       6.227280668539518E-013 -1.233466964486798E-013
  -384.943728112370       2.235215864708677E-013 -6.188845461969484E-013
  -384.150847106989      -4.090808796552892E-013 -5.147824937491362E-013
  -383.357966101608      -6.324112059222075E-013  6.313669981768851E-014
  -382.565085096228      -2.861012607927359E-013  5.244392837796281E-013
  -381.772204090847       2.339011802555486E-013  4.977690954308221E-013
  -380.979323085466       4.869342664898585E-013  1.142265353041661E-013
  -380.186442080085       3.662395600641611E-013 -2.675296607068769E-013
  -379.393561074704       4.884256320822304E-014 -4.112604121420630E-013
  -378.600680069324      -2.376922566488244E-013 -3.021755042619356E-013
  -377.807799063943      -3.617613053943733E-013 -5.524896231386885E-014
  -377.014918058562      -3.016563647447164E-013  1.959893062591756E-013
  -376.222037053181      -1.026132867454470E-013  3.524074998397598E-013
  -375.429156047801       1.593040529288564E-013  3.557451206486984E-013
  -374.636275042420       3.894251024762236E-013  1.845174101226003E-013
  -373.843394037039       4.759736313275637E-013 -1.354015506551960E-013
  -373.050513031658       3.087763785753860E-013 -4.999798560598150E-013
  -372.257632026277      -1.528377496144573E-013 -7.006011969327696E-013
  -371.464751020897      -7.582385397155847E-013 -4.705271027915688E-013
  -370.671870015516      -1.079196885002758E-012  3.110858914612581E-013
  -369.878989010135      -5.753936561311858E-013  1.295595011362883E-012
  -369.086108004754       8.363529993727725E-013  1.571244082599444E-012
  -368.293226999373       2.184739044126237E-012  3.138078933716989E-013
  -367.500345993993       1.825106019975964E-012 -1.971094191626320E-012
  -366.707464988612      -7.640775450492434E-013 -3.100911260079064E-012
  -365.914583983231      -3.503204069022087E-012 -1.179364117208665E-012
  -365.121702977850      -3.208548889419242E-012  2.643586637476959E-012
  -364.328821972470       6.118785450904460E-013  4.500341415441112E-012
  -363.535940967089       4.400592649420858E-012  1.977382984644535E-012
  -362.743059961708       4.172764381083498E-012 -2.744818865705199E-012
  -361.950178956327      -4.835678091751066E-015 -5.057194070680264E-012
  -361.157297950946      -4.157354952986930E-012 -2.832865450059788E-012
  -360.364416945566      -4.638565269629063E-012  1.706859584722946E-012
  -359.571535940185      -1.378132464752535E-012  4.622244640382550E-012
  -358.778654934804       2.718836478071253E-012  3.836196719031561E-012
  -357.985773929423       4.592632629381860E-012  3.144922412027589E-013
  -357.192892924042       3.167792907026873E-012 -3.261784793531461E-012
  -356.400011918662      -3.821249088498201E-013 -4.530225919586842E-012
  -355.607130913281      -3.696829755618484E-012 -2.755412934187452E-012
  -354.814249907900      -4.648874026749097E-012  9.502262577112262E-013
  -354.021368902519      -2.487704556241649E-012  4.279451691728585E-012
  -353.228487897139       1.643711557073294E-012  4.957066555286150E-012
  -352.435606891758       5.122305517164488E-012  2.148823918899299E-012
  -351.642725886377       5.307016646986977E-012 -2.656207914917271E-012
  -350.849844880996       1.494944789093845E-012 -6.167451978548572E-012
  -350.056963875615      -4.029590612715294E-012 -5.441426926709347E-012
  -349.264082870235      -7.181907643403229E-012 -3.894627844289775E-013
  -348.471201864854      -5.148948711756283E-012  5.586653659054232E-012
  -347.678320859473       1.064615049405779E-012  7.909274733333470E-012
  -346.885439854092       7.056399186013601E-012  4.455188838211527E-012
  -346.092558848712       8.305262873702966E-012 -2.604376077198598E-012
  -345.299677843331       3.602885119089754E-012 -8.333233725882111E-012
  -344.506796837950      -4.063461105220765E-012 -8.584931126992562E-012
  -343.713915832569      -9.588516083431584E-012 -2.828035140072465E-012
  -342.921034827188      -9.060674003479387E-012  5.532212051262771E-012
  -342.128153821808      -2.181615661948746E-012  1.119251727139532E-011
  -341.335272816427       7.369621516641227E-012  9.989623360335441E-012
  -340.542391811046       1.363783540256371E-011  1.447541161232977E-012
  -339.749510805665       1.147498685347056E-011 -1.024587093482868E-011
  -338.956629800285      -3.443255073088874E-014 -1.751252478859772E-011
  -338.163748794904      -1.530137390716925E-011 -1.319126905500979E-011
  -337.370867789523      -2.324065841794297E-011  3.830664253344328E-012
  -336.577986784142      -1.353620626496669E-011  2.410824370594813E-011
  -335.785105778761       1.289634303618956E-011  2.984555382430035E-011
  -334.992224773381       3.717169681398260E-011  8.248240501457774E-012
  -334.199343768000       3.224664081461578E-011 -3.011076494378995E-011
  -333.406462762619      -8.643300491034643E-012 -4.949432735091206E-011
  -332.613581757238      -5.176338347079555E-011 -2.104932918111116E-011
  -331.820700751857      -4.845938671508127E-011  3.600085055120202E-011
  -331.027819746477       6.272616542822440E-012  6.279315851811005E-011
  -330.234938741096       5.758703337634109E-011  2.724663231338651E-011
  -329.442057735715       5.209580662551428E-011 -3.386317610355577E-011
  -328.649176730334      -2.448255686054810E-013 -5.870611937571423E-011
  -327.856295724954      -4.470375396789183E-011 -3.030353665389300E-011
  -327.063414719573      -4.591239272369434E-011  1.629216873794233E-011
  -326.270533714192      -1.416169115402595E-011  4.109369831650399E-011
  -325.477652708811       1.940891464833534E-011  3.351264528131583E-011
  -324.684771703430       3.388993826891111E-011  7.935722051186558E-012
  -323.891890698050       2.721100477623967E-011 -1.658542820679144E-011
  -323.099009692669       8.275457515000792E-012 -2.882565360400092E-011
  -322.306128687288      -1.239014588747337E-011 -2.648037095636026E-011
  -321.513247681907      -2.694663801349331E-011 -1.248804720140492E-011
  -320.720366676527      -3.052679739660029E-011  8.025814444296001E-012
  -319.927485671146      -2.042550612298325E-011  2.860750539423671E-011
  -319.134604665765       3.568828779407850E-012  4.082691104379908E-011
  -318.341723660384       3.640946657367846E-011  3.405485628790852E-011
  -317.548842655003       6.289489171524304E-011 -8.759434274578653E-013
  -316.755961649623       5.553391832204961E-011 -5.984046434404724E-011
  -315.963080644242      -1.185756879021517E-011 -1.072283092312198E-010
  -315.170199638861      -1.223683271145006E-010 -7.483764310749693E-011
  -314.377318633480      -1.731606071963902E-010  7.684311911999528E-011
  -313.584437628099      -3.270681073767928E-011  2.431265195760059E-010
  -312.791556622719       2.472007978912922E-010  1.830320950864431E-010
  -311.998675617338       3.293358558734574E-010 -1.670715782793357E-010
  -311.205794611957      -1.444532584591263E-011 -4.205051312270564E-010
  -310.412913606576      -4.190659816905816E-010 -1.696974789959225E-010
  -309.620032601196      -3.283400094510099E-010  3.176550453858793E-010
  -308.827151595815       1.444651802392909E-010  4.096108241216762E-010
  -308.034270590434       3.874306737806637E-010  4.569351174026222E-011
  -307.241389585053       1.919266010369929E-010 -2.727038891289093E-010
  -306.448508579672      -1.096515259478706E-010 -2.511709730036369E-010
  -305.655627574292      -2.152195901262334E-010 -4.189664288233334E-011
  -304.862746568911      -1.311033961548200E-010  1.131100545055418E-010
  -304.069865563530      -2.612381796608190E-012  1.369436597243197E-010
  -303.276984558149       7.574193071890305E-011  7.993063748830940E-011
  -302.484103552769       9.083515725422010E-011  8.362854147660889E-012
  -301.691222547388       6.593337978748724E-011 -4.317873596811778E-011
  -300.898341542007       2.510452057125225E-011 -6.720067408190013E-011
  -300.105460536626      -1.718143205988426E-011 -6.712790085088785E-011
  -299.312579531245      -5.346503351121108E-011 -4.721493377545462E-011
  -298.519698525865      -7.772953858273890E-011 -9.615718045882269E-012
  -297.726817520484      -8.050909072231438E-011  4.349796421741538E-011
  -296.933936515103      -4.665147915687315E-011  1.030316078166783E-010
  -296.141055509722       3.894958499328950E-011  1.413016407971755E-010
  -295.348174504342       1.674254643127782E-010  1.036110666942355E-010
  -294.555293498961       2.618392303416256E-010 -6.789899302465683E-011
  -293.762412493580       1.614330309949967E-010 -3.379680820329037E-010
  -292.969531488199      -2.419457947850754E-010 -4.545127033011253E-010
  -292.176650482818      -6.900502532866257E-010 -6.040522806234611E-011
  -291.383769477438      -5.166307965686641E-010  7.370332825040735E-010
  -290.590888472057       5.138323321169584E-010  9.921993347405486E-010
  -289.798007466676       1.313984308485459E-009 -3.490987280417276E-011
  -289.005126461295       5.785708586788918E-010 -1.338364656612793E-009
  -288.212245455914      -1.016149827861039E-009 -1.134062203666780E-009
  -287.419364450534      -1.438587462524718E-009  4.244580045815375E-010
  -286.626483445153      -2.525855643774426E-010  1.377557714395295E-009
  -285.833602439772       9.672162043133965E-010  7.908649454669628E-010
  -285.040721434391       1.015320042471110E-009 -3.551322627334452E-010
  -284.247840429011       2.355540704902125E-010 -8.730230440898543E-010
  -283.454959423630      -4.566043740596514E-010 -5.971657376712668E-010
  -282.662078418249      -6.250384502281076E-010 -3.530808110704502E-011
  -281.869197412868      -3.858259992840467E-010  3.616410684789719E-010
  -281.076316407487      -2.516638286915799E-011  4.575521879462783E-010
  -280.283435402107       2.550690335206076E-010  3.226525227289642E-010
  -279.490554396726       3.769833183844175E-010  7.924263010493707E-011
  -278.697673391345       3.374508485392899E-010 -1.710960539145119E-010
  -277.904792385964       1.633813506212255E-010 -3.546844189758795E-010
  -277.111911380583      -1.019803573860007E-010 -4.108158448416271E-010
  -276.319030375203      -3.862251368148406E-010 -2.853995633832219E-010
  -275.526149369822      -5.651591482911650E-010  4.559602665155424E-011
  -274.733268364441      -4.659634581466662E-010  5.106185144841903E-010
  -273.940387359060       4.331779563237557E-011  8.611941638990815E-010
  -273.147506353680       8.416460376752454E-010  6.917904608453818E-010
  -272.354625348299       1.355726191928686E-009 -2.577285935354740E-010
  -271.561744342918       7.789918880537830E-010 -1.550610452963051E-009
  -270.768863337537      -1.009397001965225E-009 -1.894955115993251E-009
  -269.975982332156      -2.583008447597260E-009 -2.448276744612912E-010
  -269.183101326776      -1.851912869513394E-009  2.417505619985299E-009
  -268.390220321395       1.266218484349130E-009  3.219098297564665E-009
  -267.597339316014       3.749089354167351E-009  6.010263556133004E-010
  -266.804458310633       2.571090177148301E-009 -3.102437194571863E-009
  -266.011577305253      -1.378308516805915E-009 -3.907520701545873E-009
  -265.218696299872      -4.050616288595843E-009 -8.776592811795893E-010
  -264.425815294491      -2.860165553714299E-009  2.871133832657940E-009
  -263.632934289110       7.598859081185470E-010  3.820985251794830E-009
  -262.840053283729       3.386125655367774E-009  1.500881504656929E-009
  -262.047172278349       3.044368324656820E-009 -1.732806144700864E-009
  -261.254291272968       4.619702653025156E-010 -3.280841613470637E-009
  -260.461410267587      -2.156965764379325E-009 -2.292708246888936E-009
  -259.668529262206      -3.008139114489106E-009  1.917251967555436E-010
  -258.875648256826      -1.738306065018233E-009  2.339922941699995E-009
  -258.082767251445       6.272055089846029E-010  2.779183768629874E-009
  -257.289886246064       2.480146829820230E-009  1.327690889754200E-009
  -256.497005240683       2.616903570667309E-009 -1.001132278365875E-009
  -255.704124235302       9.542433446883118E-010 -2.641362848094569E-009
  -254.911243229922      -1.391860034799331E-009 -2.458629589515929E-009
  -254.118362224541      -2.792860627807571E-009 -5.389724016831683E-010
  -253.325481219160      -2.228519426132611E-009  1.790028012360356E-009
  -252.532600213779      -7.498405464421818E-011  2.860382815761107E-009
  -251.739719208398       2.121471115426534E-009  1.902609385129750E-009
  -250.946838203018       2.798809204059905E-009 -3.661975205281274E-010
  -250.153957197637       1.541842473146447E-009 -2.316741692009994E-009
  -249.361076192256      -6.926024756615760E-010 -2.646652791696184E-009
  -248.568195186875      -2.379904696314061E-009 -1.251425641102533E-009
  -247.775314181495      -2.505603740286121E-009  8.665571751258554E-010
  -246.982433176114      -1.108684713297798E-009  2.387843379790998E-009
  -246.189552170733       9.199484527768016E-010  2.478331709990499E-009
  -245.396671165352       2.442512554853566E-009  1.138449916575279E-009
  -244.603790159971       2.642374187630007E-009 -9.210911265077764E-010
  -243.810909154591       1.336421654212671E-009 -2.649850991424355E-009
  -243.018028149210      -9.606608728088068E-010 -3.072741721930657E-009
  -242.225147143829      -3.151934950876979E-009 -1.681716456113344E-009
  -241.432266138448      -3.867551943621206E-009  1.200136397822002E-009
  -240.639385133067      -2.075238859834654E-009  4.188534959522541E-009
  -239.846504127687       1.996176621606216E-009  5.092618190826629E-009
  -239.053623122306       6.088645554900085E-009  2.129020706284376E-009
  -238.260742116925       6.474400995116409E-009 -4.003087747764782E-009
  -237.467861111544       8.678791370765380E-010 -8.880741313276332E-009
  -236.674980106164      -7.746123811859887E-009 -6.806939027435213E-009
  -235.882099100783      -1.130342254705831E-008  2.887785363909601E-009
  -235.089218095402      -4.179419877379416E-009  1.214568817302116E-008
  -234.296337090021       8.496303613204007E-009  1.074946179972414E-008
  -233.503456084640       1.405374378094599E-008 -1.426274452657246E-009
  -232.710575079260       6.403429638848964E-009 -1.252842146622561E-008
  -231.917694073879      -6.622769318518765E-009 -1.183858770812980E-008
  -231.124813068498      -1.264575404079578E-008 -1.280168266699715E-009
  -230.331932063117      -7.863774669578808E-009  8.587043144476074E-009
  -229.539051057737       1.609301198132283E-009  1.038402146522851E-008
  -228.746170052356       7.983507664624082E-009  5.008483305767300E-009
  -227.953289046975       8.203012135071933E-009 -2.153173267098804E-009
  -227.160408041594       3.948071311483117E-009 -6.648125225532504E-009
  -226.367527036213      -1.480585221135271E-009 -7.055966921767225E-009
  -225.574646030833      -5.515572487341081E-009 -4.203321495327940E-009
  -224.781765025452      -6.925376410111698E-009  2.715082168880038E-010
  -223.988884020071      -5.457350253807835E-009  4.752161174604603E-009
  -223.196003014690      -1.414986810608784E-009  7.791104082390233E-009
  -222.403122009309       4.386973994221799E-009  7.957617783681905E-009
  -221.610241003929       1.019939641174399E-008  3.876500498036626E-009
  -220.817359998548       1.271032415380708E-008 -4.954832168764039E-009
  -220.024478993167       7.240718444139431E-009 -1.606731750846248E-008
  -219.231597987786      -9.085316618440433E-009 -2.144543644378022E-008
  -218.438716982406      -2.979725569643320E-008 -8.971814685766215E-009
  -217.645835977025      -3.326708249882395E-008  2.480505850839201E-008
  -216.852954971644       3.128858006269866E-009  5.441543343875165E-008
  -216.060073966263       6.189559782207885E-008  3.190037171481292E-008
  -215.267192960882       7.041523624731333E-008 -4.859996555740331E-008
  -214.474311955502      -1.456317537355158E-008 -9.912923580103556E-008
  -213.681430950121      -1.064163700188686E-007 -3.195175193487244E-008
  -212.888549944740      -7.681675089343810E-008  8.730647098801605E-008
  -212.095668939359       4.616380955585228E-008  1.051627274879639E-007
  -211.302787933979       1.072597612423701E-007  4.352580751212745E-009
  -210.509906928598       4.788817229820426E-008 -8.264267232075161E-008
  -209.717025923217      -4.057168573157033E-008 -7.077178469631666E-008
  -208.924144917836      -6.747363326593795E-008 -3.566884940092106E-009
  -208.131263912455      -3.451543534328298E-008  4.270971117073838E-008
  -207.338382907075       9.167307554405802E-009  4.338197597155081E-008
  -206.545501901694       3.107938657682022E-008  1.821814188788176E-008
  -205.752620896313       2.888933175275545E-008 -7.370524460565155E-009
  -204.959739890932       1.408637972928266E-008 -2.115645535238223E-008
  -204.166858885551      -2.431314131089478E-009 -2.240245970471589E-008
  -203.373977880171      -1.465985071822859E-008 -1.493930092736165E-008
  -202.581096874790      -2.025737101671343E-008 -2.911922710759041E-009
  -201.788215869409      -1.845550106376501E-008  1.023287600310594E-008
  -200.995334864028      -9.043622697632379E-009  2.105497301224346E-008
  -200.202453858648       7.086303611078378E-009  2.510618609020943E-008
  -199.409572853267       2.581233036252122E-008  1.699616262568473E-008
  -198.616691847886       3.717104208771277E-008 -6.463438826911103E-009
  -197.823810842505       2.639165172284546E-008 -3.878489985270455E-008
  -197.030929837124      -1.467327164279241E-008 -5.680405723194345E-008
  -196.238048831744      -6.654610052821320E-008 -2.967416524320226E-008
  -195.445167826363      -7.691488848824779E-008  4.437691043696987E-008
  -194.652286820982      -7.080519340148471E-009  1.048677290253396E-007
  -193.859405815601       9.684878200342267E-008  7.061226073959813E-008
  -193.066524810221       1.208525441391651E-007 -5.048011612363686E-008
  -192.273643804840       1.956605664783415E-008 -1.354000056679123E-007
  -191.480762799459      -1.055588962752438E-007 -8.680620183090274E-008
  -190.687881794078      -1.242804060493099E-007  4.140430207508775E-008
  -189.895000788697      -3.174363085239385E-008  1.169183733049428E-007
  -189.102119783317       6.897164238617454E-008  8.431482839288411E-008
  -188.309238777936       9.604509877964984E-008 -2.566350629445081E-009
  -187.516357772555       5.241462614371580E-008 -6.557762639647262E-008
  -186.723476767174      -1.115470766425661E-008 -7.255557109849717E-008
  -185.930595761794      -5.231554566212789E-008 -3.837301066231454E-008
  -185.137714756413      -5.811384909563048E-008  6.701209646531796E-009
  -184.344833751032      -3.659351204836847E-008  4.004670533897840E-008
  -183.551952745651      -2.570315706595305E-009  5.201512756415973E-008
  -182.759071740270       3.045504368356049E-008  4.214636084165159E-008
  -181.966190734890       5.207569582641543E-008  1.476354934953099E-008
  -181.173309729509       5.419531238677707E-008 -2.266751911963995E-008
  -180.380428724128       3.115401411972733E-008 -5.853732950917991E-008
  -179.587547718747      -1.678311315004764E-008 -7.564817735782439E-008
  -178.794666713366      -7.598817619864120E-008 -5.380305060014249E-008
  -178.001785707986      -1.127358059355006E-007  1.754023920751963E-008
  -177.208904702605      -8.083370286756054E-008  1.158604218089256E-007
  -176.416023697224       4.079365463581316E-008  1.702831698191434E-007
  -175.623142691843       1.932565598984116E-007  9.493866730150388E-008
  -174.830261686463       2.343982844499915E-007 -1.139910566955378E-007
  -174.037380681082       5.676331409039568E-008 -3.034738868681471E-007
  -173.244499675701      -2.468291316259815E-007 -2.571462014329360E-007
  -172.451618670320      -3.957720218042974E-007  6.091082621994435E-008
  -171.658737664939      -1.938302386377040E-007  3.927784371536516E-007
  -170.865856659559       2.223789145440464E-007  4.114236835948698E-007
  -170.072975654178       4.852044521213962E-007  6.469223064351288E-008
  -169.280094648797       3.535322858343193E-007 -3.604196270068503E-007
  -168.487213643416      -6.924740938181393E-008 -5.114425061210773E-007
  -167.694332638036      -4.502073885808876E-007 -2.720420668752712E-007
  -166.901451632655      -5.079622495962135E-007  1.755085602215322E-007
  -166.108570627274      -2.029671270929724E-007  5.144341223718380E-007
  -165.315689621893       2.637457648267670E-007  5.112484474375449E-007
  -164.522808616512       5.878201879571633E-007  1.490428348785338E-007
  -163.729927611132       5.364365747583583E-007 -3.645209937106352E-007
  -162.937046605751       8.761461287924192E-008 -6.981287775418042E-007
  -162.144165600370      -5.172400740966747E-007 -5.745411000736690E-007
  -161.351284594989      -8.573129547734578E-007  2.826604487800028E-008
  -160.558403589608      -5.797982953482002E-007  7.617101618621433E-007
  -159.765522584228       2.699929568850844E-007  1.034390742598726E-006
  -158.972641578847       1.098636584263941E-006  4.515723445182744E-007
  -158.179760573466       1.109746494746007E-006 -6.868878174036562E-007
  -157.386879568085       7.924899206181156E-008 -1.407462798275899E-006
  -156.593998562705      -1.180784739608015E-006 -9.071351658339860E-007
  -155.801117557324      -1.452952279943570E-006  4.855811576845626E-007
  -155.008236551943      -4.118708528876358E-007  1.475349923067300E-006
  -154.215355546562       9.522635810543531E-007  1.143752030785735E-006
  -153.422474541181       1.404492585428980E-006 -1.021313587990573E-007
  -152.629593535801       7.075151307110032E-007 -1.094595660993904E-006
  -151.836712530420      -3.735062255406116E-007 -1.127356250948348E-006
  -151.043831525039      -9.926093338235580E-007 -4.100821506592392E-007
  -150.250950519658      -8.836520917937866E-007  4.062437564525173E-007
  -149.458069514277      -3.075736849668213E-007  8.352675292706611E-007
  -148.665188508897       3.247777645332665E-007  7.644085616317997E-007
  -147.872307503516       7.198229047161376E-007  3.402329094636128E-007
  -147.079426498135       7.611162190668841E-007 -2.073675265964951E-007
  -146.286545492754       4.638737090340195E-007 -6.653537751478291E-007
  -145.493664487374      -7.329645232636114E-008 -8.638946272884460E-007
  -144.700783481993      -6.805978651247824E-007 -6.813900064306832E-007
  -143.907902476612      -1.106117138011420E-006 -7.790628699975204E-008
  -143.115021471231      -1.033585038961778E-006  8.167768476151603E-007
  -142.322140465850      -2.126303633128175E-007  1.590697267198616E-006
  -141.529259460470       1.237730505285807E-006  1.557702574369946E-006
  -140.736378455089       2.484483132171971E-006  1.409062443118959E-007
  -139.943497449708       2.109710714241446E-006 -2.286682419265497E-006
  -139.150616444327      -6.732028061737121E-007 -3.792594488242662E-006
  -138.357735438947      -4.235973588768131E-006 -1.988961336158359E-006
  -137.564854433566      -4.726248391618005E-006  2.878277204657091E-006
  -136.771973428185      -9.709315801423516E-008  6.325555093472910E-006
  -135.979092422804       5.880161374362214E-006  3.721763731669967E-006
  -135.186211417423       6.581450940161831E-006 -3.267961720928792E-006
  -134.393330412043       6.845465910819257E-007 -7.418696317023507E-006
  -133.600449406662      -5.736684389029647E-006 -4.474538543775591E-006
  -132.807568401281      -6.551355914271535E-006  2.107656575601300E-006
  -132.014687395900      -1.999658621559263E-006  6.033934721968310E-006
  -131.221806390520       3.174037017642345E-006  4.841434583326251E-006
  -130.428925385139       5.209062589191581E-006  6.901029465851688E-007
  -129.636044379758       3.718176873009484E-006 -3.044760571709287E-006
  -128.843163374377       4.655466841499946E-007 -4.450717703475647E-006
  -128.050282368996      -2.573120593394913E-006 -3.421524800694983E-006
  -127.257401363616      -4.153039955159856E-006 -8.428728350666646E-007
  -126.464520358235      -3.801918582477463E-006  2.135923228321148E-006
  -125.671639352854      -1.603528966251961E-006  4.391245426275352E-006
  -124.878758347473       1.866798586601898E-006  4.872152064345338E-006
  -124.085877342092       5.383204696203803E-006  2.746386562203209E-006
  -123.292996336712       6.928375413260370E-006 -2.046738630401390E-006
  -122.500115331331       4.176187874519486E-006 -7.799505787426604E-006
  -121.707234325950      -3.651464442407318E-006 -1.037669548635392E-005
  -120.914353320569      -1.286025271037936E-005 -4.866361266744927E-006
  -120.121472315189      -1.458000291965178E-005  8.937348467501561E-006
  -119.328591309808      -1.476021034941350E-006  2.089720026458608E-005
  -118.535710304427       1.982961149740387E-005  1.529341819358156E-005
  -117.742829299046       2.717569217756361E-005 -1.005700741532340E-005
  -116.949948293665       5.988260881759467E-006 -3.169872240372192E-005
  -116.157067288285      -2.588218513397120E-005 -2.269249042583873E-005
  -115.364186282904      -3.343270159467312E-005  1.089086716547398E-005
  -114.571305277523      -8.025201022330772E-006  3.349588432900051E-005
  -113.778424272142       2.241718748150179E-005  2.353266990563200E-005
  -112.985543266762       2.940322447838178E-005 -4.537430546057150E-006
  -112.192662261381       1.267754013850587E-005 -2.346000115542006E-005
  -111.399781256000      -8.815723529791974E-006 -2.195478098834294E-005
  -110.606900250619      -1.968812862232279E-005 -7.370396582580098E-006
  -109.814019245238      -1.722690322076078E-005  7.850315959592585E-006
  -109.021138239858      -6.768188740943466E-006  1.610539910971897E-005
  -108.228257234477       5.157472474594785E-006  1.586116482351950E-005
  -107.435376229096       1.399147743846435E-005  8.926626805602783E-006
  -106.642495223715       1.719466630279473E-005 -1.863729761308167E-006
  -105.849614218334       1.340249280836299E-005 -1.333962125181533E-005
  -105.056733212954       2.195999363314628E-006 -2.155247294964321E-005
  -104.263852207573      -1.477329925221905E-005 -2.127323514444554E-005
  -103.470971202192      -3.129661517083991E-005 -7.102609427882659E-006
  -102.678090196811      -3.466570818945277E-005  2.160525832382174E-005
  -101.885209191431      -9.865358984229685E-006  5.191396105685161E-005
  -101.092328186050       4.348752220803909E-005  5.316793594940329E-005
  -100.299447180669       8.860492191960119E-005 -3.148082076877035E-006
  -99.5065661752882       6.067198968920816E-005 -9.457958947767013E-005
  -98.7136851699074      -5.806418910360801E-005 -1.256460862537915E-004
  -97.9208041645266      -1.634181071644416E-004 -1.712611089008125E-005
  -97.1279231591459      -1.087634094596540E-004  1.518819604468261E-004
  -96.3350421537651       8.657275367812896E-005  1.832349149839086E-004
  -95.5421611483843       2.090992037128264E-004  1.451616870529533E-005
  -94.7492801430035       1.159900434468229E-004 -1.715815613473038E-004
  -93.9563991376227      -8.116550478843345E-005 -1.789167489875354E-004
  -93.1635181322419      -1.779784023915344E-004 -2.860512930010483E-005
  -92.3706371268612      -1.143620766056437E-004  1.140589105726986E-004
  -91.5777561214804       1.566272068923540E-005  1.420608740534368E-004
  -90.7848751160996       1.033817372297098E-004  7.274907317191992E-005
  -89.9919941107188       1.111671699759272E-004 -2.104126829475616E-005
  -89.1991131053380       6.079733307553905E-005 -8.396254330015737E-005
  -88.4062320999573      -9.231719053867754E-006 -9.779266240106742E-005
  -87.6133510945765      -6.881413648374174E-005 -6.842652258066822E-005
  -86.8204700891957      -9.996783126926412E-005 -1.043724918908841E-005
  -86.0275890838149      -9.204206970517932E-005  5.914642389554657E-005
  -85.2347080784341      -3.879996687006284E-005  1.189083910545016E-004
  -84.4418270730533       5.683768272867024E-005  1.384061420891589E-004
  -83.6489460676726       1.679539031805574E-004  8.005725193569757E-005
  -82.8560650622918       2.254374640053956E-004 -7.751922038160206E-005
  -82.0631840569110       1.264245314698840E-004 -2.845965464055657E-004
  -81.2703030515302      -1.791183099177801E-004 -3.687680585292934E-004
  -80.4774220461494      -5.268274847883622E-004 -1.066016119287723E-004
  -79.6845410407687      -5.003501866069777E-004  4.807511464885870E-004
  -78.8916600353879       1.738501934840929E-004  8.554676527912114E-004
  -78.0987790300071       1.003444470574998E-003  3.450088125628846E-004
  -77.3058980246263       9.209156953434606E-004 -8.275021739313824E-004
  -76.5130170192455      -3.256483663142544E-004 -1.342027391740198E-003
  -75.7201360138647      -1.423366051937354E-003 -3.683625552486029E-004
  -74.9272550084840      -1.022564353790818E-003  1.091514798359152E-003
  -74.1343740031032       4.309975644163389E-004  1.393921229516143E-003
  -73.3414929977224       1.331528738446780E-003  3.342783553871066E-004
  -72.5486119923416       9.240983189634165E-004 -8.502717364355218E-004
  -71.7557309869608      -1.374411323837692E-004 -1.118700042850990E-003
  -70.9628499815800      -8.587866897723797E-004 -5.181174736911560E-004
  -70.1699689761993      -8.492769227725931E-004  2.804327974048457E-004
  -69.3770879708185      -3.379616368763260E-004  7.334677963645526E-004
  -68.5842069654377       2.565403566092583E-004  6.999119613621711E-004
  -67.7913259600569       6.332763154498278E-004  3.188898842452113E-004
  -66.9984449546761       6.746720768533289E-004 -1.830476374778949E-004
  -66.2055639492953       3.967028424273967E-004 -5.972042851976079E-004
  -65.4126829439146      -1.002684207869573E-004 -7.590031950393881E-004
  -64.6198019385338      -6.423390108245443E-004 -5.564119740932782E-004
  -63.8269209331530      -9.762484336754337E-004  2.782512991468522E-005
  -63.0340399277722      -8.091070361239619E-004  8.244829474385875E-004
  -62.2411589223914       2.737904367226042E-005  1.395653809651836E-003
  -61.4482779170106       1.281517977449984E-003  1.131209819654504E-003
  -60.6553969116299       2.083515609332990E-003 -2.895874923132450E-004
  -59.8625159062491       1.325480500495125E-003 -2.214612661877237E-003
  -59.0696349008683      -1.172039672605431E-003 -2.908158853722050E-003
  -58.2767538954875      -3.642026880274280E-003 -8.936189232531748E-004
  -57.4838728901067      -3.289264471511357E-003  2.918469723483781E-003
  -56.6909918847260       6.770309544076120E-004  4.997006562533541E-003
  -55.8981108793452       5.089793864473855E-003  2.452327134424388E-003
  -55.1052298739644       5.307603456005499E-003 -3.180703969340265E-003
  -54.3123488685836       3.009334510641827E-004 -6.629572204971722E-003
  -53.5194678632028      -5.614308146068022E-003 -4.164028590376446E-003
  -52.7265868578220      -6.867105730763526E-003  2.345268199341305E-003
  -51.9337058524413      -2.112151671705094E-003  7.150313467129045E-003
  -51.1408248470605       4.630211097760105E-003  6.045064364795663E-003
  -50.3479438416797       7.762695579936567E-003 -8.137385238176620E-005
  -49.5550628362989       4.763610386568122E-003 -6.341041878450035E-003
  -48.7621818309181      -2.115270861321075E-003 -7.865052409111721E-003
  -47.9693008255373      -7.737755829657432E-003 -3.332014658167808E-003
  -47.1764198201566      -7.738204239044519E-003  4.159142208786870E-003
  -46.3835388147758      -1.611086124805339E-003  9.088322370551653E-003
  -45.5906578093950       6.522725227222311E-003  7.248551929100067E-003
  -44.7977768040142       1.029347283431043E-002 -8.147254024015243E-004
  -44.0048957986334       5.836746572890241E-003 -9.220895114179421E-003
  -43.2120147932526      -4.181986738106927E-003 -1.066647658178580E-002
  -42.4191337878719      -1.152086880748881E-002 -2.946021303971712E-003
  -41.6262527824911      -9.278953158717101E-003  7.846241308780718E-003
  -40.8333717771103       1.023802589349904E-003  1.214509368274039E-002
  -40.0404907717295       1.028377798781791E-002  6.148772132956084E-003
  -39.2476097663487       1.064958799147835E-002 -4.470839136087580E-003
  -38.4547287609680       2.756564876913247E-003 -1.059125793467870E-002
  -37.6618477555872      -6.122447550902305E-003 -8.205242785163276E-003
  -36.8689667502064      -9.492997276985030E-003 -5.819002215249294E-004
  -36.0760857448256      -6.295298727484665E-003  6.201124000549204E-003
  -35.2832047394448       1.354866122693169E-004  8.272522655575936E-003
  -34.4903237340640       5.629718144058604E-003  5.493312025217721E-003
  -33.6974427286833       7.645145259470492E-003  1.236299430023363E-004
  -32.9045617233025       5.737761986687203E-003 -5.051692757640520E-003
  -32.1116807179217       9.683910961080132E-004 -7.836736712528112E-003
  -31.3187997125409      -4.761446469527479E-003 -6.980079343928939E-003
  -30.5259187071601      -9.090804651078541E-003 -2.288528717149508E-003
  -29.7330377017793      -9.498347656540057E-003  5.082286202107469E-003
  -28.9401566963986      -4.033237064716315E-003  1.213046917102999E-002
  -28.1472756910178       6.998536807196064E-003  1.392903031458917E-002
  -27.3543946856370       1.862588664812176E-002  5.438086505904778E-003
  -26.5615136802562       2.049782207653889E-002 -1.332881329524282E-002
  -25.7686326748754       2.809942592933027E-003 -3.076322628953961E-002
  -24.9757516694946      -2.922665790229728E-002 -2.540095332517627E-002
  -24.1828706641139      -4.587986024746144E-002  1.280891334972171E-002
  -23.3899896587331      -1.541018714566076E-002  5.477462773449211E-002
  -22.5971086533523       4.593402763146102E-002  4.652489776747849E-002
  -21.8042276479715       6.891643872293440E-002 -1.983408299338228E-002
  -21.0113466425907       1.573108362365450E-002 -7.305356765996143E-002
  -20.2184656372100      -5.593492647121893E-002 -4.823420641067763E-002
  -19.4255846318292      -6.545349000483854E-002  2.303952112066696E-002
  -18.6327036264484      -1.341309663303450E-002  6.087241844451179E-002
  -17.8398226210676       3.693110900986281E-002  3.945834676738228E-002
  -17.0469416156868       4.558378406099026E-002 -4.366885651960009E-003
  -16.2540606103060       2.241907259778270E-002 -3.126317646071730E-002
  -15.4611796049253      -5.460001392364959E-003 -3.208931863304765E-002
  -14.6682985995445      -2.205327783160594E-002 -1.753844411131437E-002
  -13.8754175941637      -2.532464191262496E-002  1.116230183158956E-004
  -13.0825365887829      -1.925852145950936E-002  1.422021952695933E-002
  -12.2896555834021      -7.917800447411284E-003  2.270800834359165E-002
  -11.4967745780213       6.292787271623919E-003  2.508307685291187E-002
  -10.7038935726406       2.194778670984892E-002  2.028138963069971E-002
  -9.91101256725978       3.669143180910388E-002  5.654490679330900E-003
  -9.11813156187900       4.405867313280076E-002 -2.239802321685344E-002
  -8.32525055649822       2.931341366629966E-002 -6.362578780535859E-002
  -7.53236955111743      -3.057345904329248E-002 -0.100107059050317     
  -6.73948854573665      -0.144735072188075      -7.445469704613693E-002
  -5.94660754035587      -0.238450588786705       0.102004610387412     
  -5.15372653497509      -8.333623548785203E-002  0.407694120342944     
  -4.36084552959430       0.495856805464372       0.435179284611914     
  -3.56796452421352       0.927329515911219      -0.409873399176519     
  -2.77508351883274      -8.736471118703304E-002  -1.47993432719494     
  -1.98220251345196       -1.97367116434093      -0.467993205341399     
  -1.18932150807117       -1.17079146985895        2.27813341044762     
 -0.396440502690391        2.28844981811146        1.87106433757131     
  0.396440502690391        2.28844981811146       -1.87106433757131     
   1.18932150807117       -1.17079146985895       -2.27813341044762     
   1.98220251345196       -1.97367116434093       0.467993205341399     
   2.77508351883274      -8.736471118703304E-002   1.47993432719494     
   3.56796452421352       0.927329515911219       0.409873399176519     
   4.36084552959430       0.495856805464372      -0.435179284611914     
   5.15372653497509      -8.333623548785203E-002 -0.407694120342944     
   5.94660754035587      -0.238450588786705      -0.102004610387412     
   6.73948854573665      -0.144735072188075       7.445469704613693E-002
   7.53236955111743      -3.057345904329248E-002  0.100107059050317     
   8.32525055649822       2.931341366629966E-002  6.362578780535859E-002
   9.11813156187900       4.405867313280076E-002  2.239802321685344E-002
   9.91101256725978       3.669143180910388E-002 -5.654490679330900E-003
   10.7038935726406       2.194778670984892E-002 -2.028138963069971E-002
   11.4967745780213       6.292787271623919E-003 -2.508307685291187E-002
   12.2896555834021      -7.917800447411284E-003 -2.270800834359165E-002
   13.0825365887829      -1.925852145950936E-002 -1.422021952695933E-002
   13.8754175941637      -2.532464191262496E-002 -1.116230183158956E-004
   14.6682985995445      -2.205327783160594E-002  1.753844411131437E-002
   15.4611796049253      -5.460001392364959E-003  3.208931863304765E-002
   16.2540606103060       2.241907259778270E-002  3.126317646071730E-002
   17.0469416156868       4.558378406099026E-002  4.366885651960009E-003
   17.8398226210676       3.693110900986281E-002 -3.945834676738228E-002
   18.6327036264484      -1.341309663303450E-002 -6.087241844451179E-002
   19.4255846318292      -6.545349000483854E-002 -2.303952112066696E-002
   20.2184656372100      -5.593492647121893E-002  4.823420641067763E-002
   21.0113466425907       1.573108362365450E-002  7.305356765996143E-002
   21.8042276479715       6.891643872293440E-002  1.983408299338228E-002
   22.5971086533523       4.593402763146102E-002 -4.652489776747849E-002
   23.3899896587331      -1.541018714566076E-002 -5.477462773449211E-002
   24.1828706641139      -4.587986024746144E-002 -1.280891334972171E-002
   24.9757516694946      -2.922665790229728E-002  2.540095332517627E-002
   25.7686326748754       2.809942592933027E-003  3.076322628953961E-002
   26.5615136802562       2.049782207653889E-002  1.332881329524282E-002
   27.3543946856370       1.862588664812176E-002 -5.438086505904778E-003
   28.1472756910178       6.998536807196064E-003 -1.392903031458917E-002
   28.9401566963986      -4.033237064716315E-003 -1.213046917102999E-002
   29.7330377017793      -9.498347656540057E-003 -5.082286202107469E-003
   30.5259187071601      -9.090804651078541E-003  2.288528717149508E-003
   31.3187997125409      -4.761446469527479E-003  6.980079343928939E-003
   32.1116807179217       9.683910961080132E-004  7.836736712528112E-003
   32.9045617233025       5.737761986687203E-003  5.051692757640520E-003
   33.6974427286833       7.645145259470492E-003 -1.236299430023363E-004
   34.4903237340640       5.629718144058604E-003 -5.493312025217721E-003
   35.2832047394448       1.354866122693169E-004 -8.272522655575936E-003
   36.0760857448256      -6.295298727484665E-003 -6.201124000549204E-003
   36.8689667502064      -9.492997276985030E-003  5.819002215249294E-004
   37.6618477555872      -6.122447550902305E-003  8.205242785163276E-003
   38.4547287609680       2.756564876913247E-003  1.059125793467870E-002
   39.2476097663487       1.064958799147835E-002  4.470839136087580E-003
   40.0404907717295       1.028377798781791E-002 -6.148772132956084E-003
   40.8333717771103       1.023802589349904E-003 -1.214509368274039E-002
   41.6262527824911      -9.278953158717101E-003 -7.846241308780718E-003
   42.4191337878719      -1.152086880748881E-002  2.946021303971712E-003
   43.2120147932526      -4.181986738106927E-003  1.066647658178580E-002
   44.0048957986334       5.836746572890241E-003  9.220895114179421E-003
   44.7977768040142       1.029347283431043E-002  8.147254024015243E-004
   45.5906578093950       6.522725227222311E-003 -7.248551929100067E-003
   46.3835388147758      -1.611086124805339E-003 -9.088322370551653E-003
   47.1764198201566      -7.738204239044519E-003 -4.159142208786870E-003
   47.9693008255373      -7.737755829657432E-003  3.332014658167808E-003
   48.7621818309181      -2.115270861321075E-003  7.865052409111721E-003
   49.5550628362989       4.763610386568122E-003  6.341041878450035E-003
   50.3479438416797       7.762695579936567E-003  8.137385238176620E-005
   51.1408248470605       4.630211097760105E-003 -6.045064364795663E-003
   51.9337058524412      -2.112151671705094E-003 -7.150313467129045E-003
   52.7265868578220      -6.867105730763526E-003 -2.345268199341305E-003
   53.5194678632028      -5.614308146068022E-003  4.164028590376446E-003
   54.3123488685836       3.009334510641827E-004  6.629572204971722E-003
   55.1052298739644       5.307603456005499E-003  3.180703969340265E-003
   55.8981108793452       5.089793864473855E-003 -2.452327134424388E-003
   56.6909918847259       6.770309544076120E-004 -4.997006562533541E-003
   57.4838728901067      -3.289264471511357E-003 -2.918469723483781E-003
   58.2767538954875      -3.642026880274280E-003  8.936189232531748E-004
   59.0696349008683      -1.172039672605431E-003  2.908158853722050E-003
   59.8625159062491       1.325480500495125E-003  2.214612661877237E-003
   60.6553969116299       2.083515609332990E-003  2.895874923132450E-004
   61.4482779170106       1.281517977449984E-003 -1.131209819654504E-003
   62.2411589223914       2.737904367226042E-005 -1.395653809651836E-003
   63.0340399277722      -8.091070361239619E-004 -8.244829474385875E-004
   63.8269209331530      -9.762484336754337E-004 -2.782512991468522E-005
   64.6198019385338      -6.423390108245443E-004  5.564119740932782E-004
   65.4126829439146      -1.002684207869573E-004  7.590031950393881E-004
   66.2055639492953       3.967028424273967E-004  5.972042851976079E-004
   66.9984449546761       6.746720768533289E-004  1.830476374778949E-004
   67.7913259600569       6.332763154498278E-004 -3.188898842452113E-004
   68.5842069654377       2.565403566092583E-004 -6.999119613621711E-004
   69.3770879708185      -3.379616368763260E-004 -7.334677963645526E-004
   70.1699689761992      -8.492769227725931E-004 -2.804327974048457E-004
   70.9628499815800      -8.587866897723797E-004  5.181174736911560E-004
   71.7557309869608      -1.374411323837692E-004  1.118700042850990E-003
   72.5486119923416       9.240983189634165E-004  8.502717364355218E-004
   73.3414929977224       1.331528738446780E-003 -3.342783553871066E-004
   74.1343740031032       4.309975644163389E-004 -1.393921229516143E-003
   74.9272550084840      -1.022564353790818E-003 -1.091514798359152E-003
   75.7201360138647      -1.423366051937354E-003  3.683625552486029E-004
   76.5130170192455      -3.256483663142544E-004  1.342027391740198E-003
   77.3058980246263       9.209156953434606E-004  8.275021739313824E-004
   78.0987790300071       1.003444470574998E-003 -3.450088125628846E-004
   78.8916600353879       1.738501934840929E-004 -8.554676527912114E-004
   79.6845410407687      -5.003501866069777E-004 -4.807511464885870E-004
   80.4774220461494      -5.268274847883622E-004  1.066016119287723E-004
   81.2703030515302      -1.791183099177801E-004  3.687680585292934E-004
   82.0631840569110       1.264245314698840E-004  2.845965464055657E-004
   82.8560650622918       2.254374640053956E-004  7.751922038160206E-005
   83.6489460676726       1.679539031805574E-004 -8.005725193569757E-005
   84.4418270730533       5.683768272867024E-005 -1.384061420891589E-004
   85.2347080784341      -3.879996687006284E-005 -1.189083910545016E-004
   86.0275890838149      -9.204206970517932E-005 -5.914642389554657E-005
   86.8204700891957      -9.996783126926412E-005  1.043724918908841E-005
   87.6133510945765      -6.881413648374174E-005  6.842652258066822E-005
   88.4062320999573      -9.231719053867754E-006  9.779266240106742E-005
   89.1991131053380       6.079733307553905E-005  8.396254330015737E-005
   89.9919941107188       1.111671699759272E-004  2.104126829475616E-005
   90.7848751160996       1.033817372297098E-004 -7.274907317191992E-005
   91.5777561214804       1.566272068923540E-005 -1.420608740534368E-004
   92.3706371268612      -1.143620766056437E-004 -1.140589105726986E-004
   93.1635181322419      -1.779784023915344E-004  2.860512930010483E-005
   93.9563991376227      -8.116550478843345E-005  1.789167489875354E-004
   94.7492801430035       1.159900434468229E-004  1.715815613473038E-004
   95.5421611483843       2.090992037128264E-004 -1.451616870529533E-005
   96.3350421537651       8.657275367812896E-005 -1.832349149839086E-004
   97.1279231591459      -1.087634094596540E-004 -1.518819604468261E-004
   97.9208041645266      -1.634181071644416E-004  1.712611089008125E-005
   98.7136851699074      -5.806418910360801E-005  1.256460862537915E-004
   99.5065661752882       6.067198968920816E-005  9.457958947767013E-005
   100.299447180669       8.860492191960119E-005  3.148082076877035E-006
   101.092328186050       4.348752220803909E-005 -5.316793594940329E-005
   101.885209191431      -9.865358984229685E-006 -5.191396105685161E-005
   102.678090196811      -3.466570818945277E-005 -2.160525832382174E-005
   103.470971202192      -3.129661517083991E-005  7.102609427882659E-006
   104.263852207573      -1.477329925221905E-005  2.127323514444554E-005
   105.056733212954       2.195999363314628E-006  2.155247294964321E-005
   105.849614218334       1.340249280836299E-005  1.333962125181533E-005
   106.642495223715       1.719466630279473E-005  1.863729761308167E-006
   107.435376229096       1.399147743846435E-005 -8.926626805602783E-006
   108.228257234477       5.157472474594785E-006 -1.586116482351950E-005
   109.021138239858      -6.768188740943466E-006 -1.610539910971897E-005
   109.814019245238      -1.722690322076078E-005 -7.850315959592585E-006
   110.606900250619      -1.968812862232279E-005  7.370396582580098E-006
   111.399781256000      -8.815723529791974E-006  2.195478098834294E-005
   112.192662261381       1.267754013850587E-005  2.346000115542006E-005
   112.985543266762       2.940322447838178E-005  4.537430546057150E-006
   113.778424272142       2.241718748150179E-005 -2.353266990563200E-005
   114.571305277523      -8.025201022330772E-006 -3.349588432900051E-005
   115.364186282904      -3.343270159467312E-005 -1.089086716547398E-005
   116.157067288285      -2.588218513397120E-005  2.269249042583873E-005
   116.949948293665       5.988260881759467E-006  3.169872240372192E-005
   117.742829299046       2.717569217756361E-005  1.005700741532340E-005
   118.535710304427       1.982961149740387E-005 -1.529341819358156E-005
   119.328591309808      -1.476021034941350E-006 -2.089720026458608E-005
   120.121472315189      -1.458000291965178E-005 -8.937348467501561E-006
   120.914353320569      -1.286025271037936E-005  4.866361266744927E-006
   121.707234325950      -3.651464442407318E-006  1.037669548635392E-005
   122.500115331331       4.176187874519486E-006  7.799505787426604E-006
   123.292996336712       6.928375413260370E-006  2.046738630401390E-006
   124.085877342092       5.383204696203803E-006 -2.746386562203209E-006
   124.878758347473       1.866798586601898E-006 -4.872152064345338E-006
   125.671639352854      -1.603528966251961E-006 -4.391245426275352E-006
   126.464520358235      -3.801918582477463E-006 -2.135923228321148E-006
   127.257401363616      -4.153039955159856E-006  8.428728350666646E-007
   128.050282368996      -2.573120593394913E-006  3.421524800694983E-006
   128.843163374377       4.655466841499946E-007  4.450717703475647E-006
   129.636044379758       3.718176873009484E-006  3.044760571709287E-006
   130.428925385139       5.209062589191581E-006 -6.901029465851688E-007
   131.221806390520       3.174037017642345E-006 -4.841434583326251E-006
   132.014687395900      -1.999658621559263E-006 -6.033934721968310E-006
   132.807568401281      -6.551355914271535E-006 -2.107656575601300E-006
   133.600449406662      -5.736684389029647E-006  4.474538543775591E-006
   134.393330412043       6.845465910819257E-007  7.418696317023507E-006
   135.186211417423       6.581450940161831E-006  3.267961720928792E-006
   135.979092422804       5.880161374362214E-006 -3.721763731669967E-006
   136.771973428185      -9.709315801423516E-008 -6.325555093472910E-006
   137.564854433566      -4.726248391618005E-006 -2.878277204657091E-006
   138.357735438947      -4.235973588768131E-006  1.988961336158359E-006
   139.150616444327      -6.732028061737121E-007  3.792594488242662E-006
   139.943497449708       2.109710714241446E-006  2.286682419265497E-006
   140.736378455089       2.484483132171971E-006 -1.409062443118959E-007
   141.529259460470       1.237730505285807E-006 -1.557702574369946E-006
   142.322140465850      -2.126303633128175E-007 -1.590697267198616E-006
   143.115021471231      -1.033585038961778E-006 -8.167768476151603E-007
   143.907902476612      -1.106117138011420E-006  7.790628699975204E-008
   144.700783481993      -6.805978651247824E-007  6.813900064306832E-007
   145.493664487374      -7.329645232636114E-008  8.638946272884460E-007
   146.286545492754       4.638737090340195E-007  6.653537751478291E-007
   147.079426498135       7.611162190668841E-007  2.073675265964951E-007
   147.872307503516       7.198229047161376E-007 -3.402329094636128E-007
   148.665188508897       3.247777645332665E-007 -7.644085616317997E-007
   149.458069514277      -3.075736849668213E-007 -8.352675292706611E-007
   150.250950519658      -8.836520917937866E-007 -4.062437564525173E-007
   151.043831525039      -9.926093338235580E-007  4.100821506592392E-007
   151.836712530420      -3.735062255406116E-007  1.127356250948348E-006
   152.629593535801       7.075151307110032E-007  1.094595660993904E-006
   153.422474541181       1.404492585428980E-006  1.021313587990573E-007
   154.215355546562       9.522635810543531E-007 -1.143752030785735E-006
   155.008236551943      -4.118708528876358E-007 -1.475349923067300E-006
   155.801117557324      -1.452952279943570E-006 -4.855811576845626E-007
   156.593998562705      -1.180784739608015E-006  9.071351658339860E-007
   157.386879568085       7.924899206181156E-008  1.407462798275899E-006
   158.179760573466       1.109746494746007E-006  6.868878174036562E-007
   158.972641578847       1.098636584263941E-006 -4.515723445182744E-007
   159.765522584228       2.699929568850844E-007 -1.034390742598726E-006
   160.558403589608      -5.797982953482002E-007 -7.617101618621433E-007
   161.351284594989      -8.573129547734578E-007 -2.826604487800028E-008
   162.144165600370      -5.172400740966747E-007  5.745411000736690E-007
   162.937046605751       8.761461287924192E-008  6.981287775418042E-007
   163.729927611132       5.364365747583583E-007  3.645209937106352E-007
   164.522808616512       5.878201879571633E-007 -1.490428348785338E-007
   165.315689621893       2.637457648267670E-007 -5.112484474375449E-007
   166.108570627274      -2.029671270929724E-007 -5.144341223718380E-007
   166.901451632655      -5.079622495962135E-007 -1.755085602215322E-007
   167.694332638036      -4.502073885808876E-007  2.720420668752712E-007
   168.487213643416      -6.924740938181393E-008  5.114425061210773E-007
   169.280094648797       3.535322858343193E-007  3.604196270068503E-007
   170.072975654178       4.852044521213962E-007 -6.469223064351288E-008
   170.865856659559       2.223789145440464E-007 -4.114236835948698E-007
   171.658737664939      -1.938302386377040E-007 -3.927784371536516E-007
   172.451618670320      -3.957720218042974E-007 -6.091082621994435E-008
   173.244499675701      -2.468291316259815E-007  2.571462014329360E-007
   174.037380681082       5.676331409039568E-008  3.034738868681471E-007
   174.830261686463       2.343982844499915E-007  1.139910566955378E-007
   175.623142691843       1.932565598984116E-007 -9.493866730150388E-008
   176.416023697224       4.079365463581316E-008 -1.702831698191434E-007
   177.208904702605      -8.083370286756054E-008 -1.158604218089256E-007
   178.001785707986      -1.127358059355006E-007 -1.754023920751963E-008
   178.794666713366      -7.598817619864120E-008  5.380305060014249E-008
   179.587547718747      -1.678311315004764E-008  7.564817735782439E-008
   180.380428724128       3.115401411972733E-008  5.853732950917991E-008
   181.173309729509       5.419531238677707E-008  2.266751911963995E-008
   181.966190734890       5.207569582641543E-008 -1.476354934953099E-008
   182.759071740270       3.045504368356049E-008 -4.214636084165159E-008
   183.551952745651      -2.570315706595305E-009 -5.201512756415973E-008
   184.344833751032      -3.659351204836847E-008 -4.004670533897840E-008
   185.137714756413      -5.811384909563048E-008 -6.701209646531796E-009
   185.930595761794      -5.231554566212789E-008  3.837301066231454E-008
   186.723476767174      -1.115470766425661E-008  7.255557109849717E-008
   187.516357772555       5.241462614371580E-008  6.557762639647262E-008
   188.309238777936       9.604509877964984E-008  2.566350629445081E-009
   189.102119783317       6.897164238617454E-008 -8.431482839288411E-008
   189.895000788697      -3.174363085239385E-008 -1.169183733049428E-007
   190.687881794078      -1.242804060493099E-007 -4.140430207508775E-008
   191.480762799459      -1.055588962752438E-007  8.680620183090274E-008
   192.273643804840       1.956605664783415E-008  1.354000056679123E-007
   193.066524810221       1.208525441391651E-007  5.048011612363686E-008
   193.859405815601       9.684878200342267E-008 -7.061226073959813E-008
   194.652286820982      -7.080519340148471E-009 -1.048677290253396E-007
   195.445167826363      -7.691488848824779E-008 -4.437691043696987E-008
   196.238048831744      -6.654610052821320E-008  2.967416524320226E-008
   197.030929837124      -1.467327164279241E-008  5.680405723194345E-008
   197.823810842505       2.639165172284546E-008  3.878489985270455E-008
   198.616691847886       3.717104208771277E-008  6.463438826911103E-009
   199.409572853267       2.581233036252122E-008 -1.699616262568473E-008
   200.202453858648       7.086303611078378E-009 -2.510618609020943E-008
   200.995334864028      -9.043622697632379E-009 -2.105497301224346E-008
   201.788215869409      -1.845550106376501E-008 -1.023287600310594E-008
   202.581096874790      -2.025737101671343E-008  2.911922710759041E-009
   203.373977880171      -1.465985071822859E-008  1.493930092736165E-008
   204.166858885551      -2.431314131089478E-009  2.240245970471589E-008
   204.959739890932       1.408637972928266E-008  2.115645535238223E-008
   205.752620896313       2.888933175275545E-008  7.370524460565155E-009
   206.545501901694       3.107938657682022E-008 -1.821814188788176E-008
   207.338382907075       9.167307554405802E-009 -4.338197597155081E-008
   208.131263912455      -3.451543534328298E-008 -4.270971117073838E-008
   208.924144917836      -6.747363326593795E-008  3.566884940092106E-009
   209.717025923217      -4.057168573157033E-008  7.077178469631666E-008
   210.509906928598       4.788817229820426E-008  8.264267232075161E-008
   211.302787933979       1.072597612423701E-007 -4.352580751212745E-009
   212.095668939359       4.616380955585228E-008 -1.051627274879639E-007
   212.888549944740      -7.681675089343810E-008 -8.730647098801605E-008
   213.681430950121      -1.064163700188686E-007  3.195175193487244E-008
   214.474311955502      -1.456317537355158E-008  9.912923580103556E-008
   215.267192960882       7.041523624731333E-008  4.859996555740331E-008
   216.060073966263       6.189559782207885E-008 -3.190037171481292E-008
   216.852954971644       3.128858006269866E-009 -5.441543343875165E-008
   217.645835977025      -3.326708249882395E-008 -2.480505850839201E-008
   218.438716982406      -2.979725569643320E-008  8.971814685766215E-009
   219.231597987786      -9.085316618440433E-009  2.144543644378022E-008
   220.024478993167       7.240718444139431E-009  1.606731750846248E-008
   220.817359998548       1.271032415380708E-008  4.954832168764039E-009
   221.610241003929       1.019939641174399E-008 -3.876500498036626E-009
   222.403122009309       4.386973994221799E-009 -7.957617783681905E-009
   223.196003014690      -1.414986810608784E-009 -7.791104082390233E-009
   223.988884020071      -5.457350253807835E-009 -4.752161174604603E-009
   224.781765025452      -6.925376410111698E-009 -2.715082168880038E-010
   225.574646030833      -5.515572487341081E-009  4.203321495327940E-009
   226.367527036213      -1.480585221135271E-009  7.055966921767225E-009
   227.160408041594       3.948071311483117E-009  6.648125225532504E-009
   227.953289046975       8.203012135071933E-009  2.153173267098804E-009
   228.746170052356       7.983507664624082E-009 -5.008483305767300E-009
   229.539051057737       1.609301198132283E-009 -1.038402146522851E-008
   230.331932063117      -7.863774669578808E-009 -8.587043144476074E-009
   231.124813068498      -1.264575404079578E-008  1.280168266699715E-009
   231.917694073879      -6.622769318518765E-009  1.183858770812980E-008
   232.710575079260       6.403429638848964E-009  1.252842146622561E-008
   233.503456084640       1.405374378094599E-008  1.426274452657246E-009
   234.296337090021       8.496303613204007E-009 -1.074946179972414E-008
   235.089218095402      -4.179419877379416E-009 -1.214568817302116E-008
   235.882099100783      -1.130342254705831E-008 -2.887785363909601E-009
   236.674980106164      -7.746123811859887E-009  6.806939027435213E-009
   237.467861111544       8.678791370765380E-010  8.880741313276332E-009
   238.260742116925       6.474400995116409E-009  4.003087747764782E-009
   239.053623122306       6.088645554900085E-009 -2.129020706284376E-009
   239.846504127687       1.996176621606216E-009 -5.092618190826629E-009
   240.639385133067      -2.075238859834654E-009 -4.188534959522541E-009
   241.432266138448      -3.867551943621206E-009 -1.200136397822002E-009
   242.225147143829      -3.151934950876979E-009  1.681716456113344E-009
   243.018028149210      -9.606608728088068E-010  3.072741721930657E-009
   243.810909154591       1.336421654212671E-009  2.649850991424355E-009
   244.603790159971       2.642374187630007E-009  9.210911265077764E-010
   245.396671165352       2.442512554853566E-009 -1.138449916575279E-009
   246.189552170733       9.199484527768016E-010 -2.478331709990499E-009
   246.982433176114      -1.108684713297798E-009 -2.387843379790998E-009
   247.775314181495      -2.505603740286121E-009 -8.665571751258554E-010
   248.568195186875      -2.379904696314061E-009  1.251425641102533E-009
   249.361076192256      -6.926024756615760E-010  2.646652791696184E-009
   250.153957197637       1.541842473146447E-009  2.316741692009994E-009
   250.946838203018       2.798809204059905E-009  3.661975205281274E-010
   251.739719208398       2.121471115426534E-009 -1.902609385129750E-009
   252.532600213779      -7.498405464421818E-011 -2.860382815761107E-009
   253.325481219160      -2.228519426132611E-009 -1.790028012360356E-009
   254.118362224541      -2.792860627807571E-009  5.389724016831683E-010
   254.911243229922      -1.391860034799331E-009  2.458629589515929E-009
   255.704124235302       9.542433446883118E-010  2.641362848094569E-009
   256.497005240683       2.616903570667309E-009  1.001132278365875E-009
   257.289886246064       2.480146829820230E-009 -1.327690889754200E-009
   258.082767251445       6.272055089846029E-010 -2.779183768629874E-009
   258.875648256826      -1.738306065018233E-009 -2.339922941699995E-009
   259.668529262206      -3.008139114489106E-009 -1.917251967555436E-010
   260.461410267587      -2.156965764379325E-009  2.292708246888936E-009
   261.254291272968       4.619702653025156E-010  3.280841613470637E-009
   262.047172278349       3.044368324656820E-009  1.732806144700864E-009
   262.840053283729       3.386125655367774E-009 -1.500881504656929E-009
   263.632934289110       7.598859081185470E-010 -3.820985251794830E-009
   264.425815294491      -2.860165553714299E-009 -2.871133832657940E-009
   265.218696299872      -4.050616288595843E-009  8.776592811795893E-010
   266.011577305253      -1.378308516805915E-009  3.907520701545873E-009
   266.804458310633       2.571090177148301E-009  3.102437194571863E-009
   267.597339316014       3.749089354167351E-009 -6.010263556133004E-010
   268.390220321395       1.266218484349130E-009 -3.219098297564665E-009
   269.183101326776      -1.851912869513394E-009 -2.417505619985299E-009
   269.975982332156      -2.583008447597260E-009  2.448276744612912E-010
   270.768863337537      -1.009397001965225E-009  1.894955115993251E-009
   271.561744342918       7.789918880537830E-010  1.550610452963051E-009
   272.354625348299       1.355726191928686E-009  2.577285935354740E-010
   273.147506353680       8.416460376752454E-010 -6.917904608453818E-010
   273.940387359060       4.331779563237557E-011 -8.611941638990815E-010
   274.733268364441      -4.659634581466662E-010 -5.106185144841903E-010
   275.526149369822      -5.651591482911650E-010 -4.559602665155424E-011
   276.319030375203      -3.862251368148406E-010  2.853995633832219E-010
   277.111911380583      -1.019803573860007E-010  4.108158448416271E-010
   277.904792385964       1.633813506212255E-010  3.546844189758795E-010
   278.697673391345       3.374508485392899E-010  1.710960539145119E-010
   279.490554396726       3.769833183844175E-010 -7.924263010493707E-011
   280.283435402107       2.550690335206076E-010 -3.226525227289642E-010
   281.076316407487      -2.516638286915799E-011 -4.575521879462783E-010
   281.869197412868      -3.858259992840467E-010 -3.616410684789719E-010
   282.662078418249      -6.250384502281076E-010  3.530808110704502E-011
   283.454959423630      -4.566043740596514E-010  5.971657376712668E-010
   284.247840429011       2.355540704902125E-010  8.730230440898543E-010
   285.040721434391       1.015320042471110E-009  3.551322627334452E-010
   285.833602439772       9.672162043133965E-010 -7.908649454669628E-010
   286.626483445153      -2.525855643774426E-010 -1.377557714395295E-009
   287.419364450534      -1.438587462524718E-009 -4.244580045815375E-010
   288.212245455914      -1.016149827861039E-009  1.134062203666780E-009
   289.005126461295       5.785708586788918E-010  1.338364656612793E-009
   289.798007466676       1.313984308485459E-009  3.490987280417276E-011
   290.590888472057       5.138323321169584E-010 -9.921993347405486E-010
   291.383769477438      -5.166307965686641E-010 -7.370332825040735E-010
   292.176650482818      -6.900502532866257E-010  6.040522806234611E-011
   292.969531488199      -2.419457947850754E-010  4.545127033011253E-010
   293.762412493580       1.614330309949967E-010  3.379680820329037E-010
   294.555293498961       2.618392303416256E-010  6.789899302465683E-011
   295.348174504342       1.674254643127782E-010 -1.036110666942355E-010
   296.141055509722       3.894958499328950E-011 -1.413016407971755E-010
   296.933936515103      -4.665147915687315E-011 -1.030316078166783E-010
   297.726817520484      -8.050909072231438E-011 -4.349796421741538E-011
   298.519698525865      -7.772953858273890E-011  9.615718045882269E-012
   299.312579531245      -5.346503351121108E-011  4.721493377545462E-011
   300.105460536626      -1.718143205988426E-011  6.712790085088785E-011
   300.898341542007       2.510452057125225E-011  6.720067408190013E-011
   301.691222547388       6.593337978748724E-011  4.317873596811778E-011
   302.484103552769       9.083515725422010E-011 -8.362854147660889E-012
   303.276984558149       7.574193071890305E-011 -7.993063748830940E-011
   304.069865563530      -2.612381796608190E-012 -1.369436597243197E-010
   304.862746568911      -1.311033961548200E-010 -1.131100545055418E-010
   305.655627574292      -2.152195901262334E-010  4.189664288233334E-011
   306.448508579672      -1.096515259478706E-010  2.511709730036369E-010
   307.241389585053       1.919266010369929E-010  2.727038891289093E-010
   308.034270590434       3.874306737806637E-010 -4.569351174026222E-011
   308.827151595815       1.444651802392909E-010 -4.096108241216762E-010
   309.620032601196      -3.283400094510099E-010 -3.176550453858793E-010
   310.412913606576      -4.190659816905816E-010  1.696974789959225E-010
   311.205794611957      -1.444532584591263E-011  4.205051312270564E-010
   311.998675617338       3.293358558734574E-010  1.670715782793357E-010
   312.791556622719       2.472007978912922E-010 -1.830320950864431E-010
   313.584437628099      -3.270681073767928E-011 -2.431265195760059E-010
   314.377318633480      -1.731606071963902E-010 -7.684311911999528E-011
   315.170199638861      -1.223683271145006E-010  7.483764310749693E-011
   315.963080644242      -1.185756879021517E-011  1.072283092312198E-010
   316.755961649623       5.553391832204961E-011  5.984046434404724E-011
   317.548842655003       6.289489171524304E-011  8.759434274578653E-013
   318.341723660384       3.640946657367846E-011 -3.405485628790852E-011
   319.134604665765       3.568828779407850E-012 -4.082691104379908E-011
   319.927485671146      -2.042550612298325E-011 -2.860750539423671E-011
   320.720366676527      -3.052679739660029E-011 -8.025814444296001E-012
   321.513247681907      -2.694663801349331E-011  1.248804720140492E-011
   322.306128687288      -1.239014588747337E-011  2.648037095636026E-011
   323.099009692669       8.275457515000792E-012  2.882565360400092E-011
   323.891890698050       2.721100477623967E-011  1.658542820679144E-011
   324.684771703430       3.388993826891111E-011 -7.935722051186558E-012
   325.477652708811       1.940891464833534E-011 -3.351264528131583E-011
   326.270533714192      -1.416169115402595E-011 -4.109369831650399E-011
   327.063414719573      -4.591239272369434E-011 -1.629216873794233E-011
   327.856295724954      -4.470375396789183E-011  3.030353665389300E-011
   328.649176730334      -2.448255686054810E-013  5.870611937571423E-011
   329.442057735715       5.209580662551428E-011  3.386317610355577E-011
   330.234938741096       5.758703337634109E-011 -2.724663231338651E-011
   331.027819746477       6.272616542822440E-012 -6.279315851811005E-011
   331.820700751857      -4.845938671508127E-011 -3.600085055120202E-011
   332.613581757238      -5.176338347079555E-011  2.104932918111116E-011
   333.406462762619      -8.643300491034643E-012  4.949432735091206E-011
   334.199343768000       3.224664081461578E-011  3.011076494378995E-011
   334.992224773381       3.717169681398260E-011 -8.248240501457774E-012
   335.785105778761       1.289634303618956E-011 -2.984555382430035E-011
   336.577986784142      -1.353620626496669E-011 -2.410824370594813E-011
   337.370867789523      -2.324065841794297E-011 -3.830664253344328E-012
   338.163748794904      -1.530137390716925E-011  1.319126905500979E-011
   338.956629800285      -3.443255073088874E-014  1.751252478859772E-011
   339.749510805665       1.147498685347056E-011  1.024587093482868E-011
   340.542391811046       1.363783540256371E-011 -1.447541161232977E-012
   341.335272816427       7.369621516641227E-012 -9.989623360335441E-012
   342.128153821808      -2.181615661948746E-012 -1.119251727139532E-011
   342.921034827188      -9.060674003479387E-012 -5.532212051262771E-012
   343.713915832569      -9.588516083431584E-012  2.828035140072465E-012
   344.506796837950      -4.063461105220765E-012  8.584931126992562E-012
   345.299677843331       3.602885119089754E-012  8.333233725882111E-012
   346.092558848712       8.305262873702966E-012  2.604376077198598E-012
   346.885439854092       7.056399186013601E-012 -4.455188838211527E-012
   347.678320859473       1.064615049405779E-012 -7.909274733333470E-012
   348.471201864854      -5.148948711756283E-012 -5.586653659054232E-012
   349.264082870235      -7.181907643403229E-012  3.894627844289775E-013
   350.056963875615      -4.029590612715294E-012  5.441426926709347E-012
   350.849844880996       1.494944789093845E-012  6.167451978548572E-012
   351.642725886377       5.307016646986977E-012  2.656207914917271E-012
   352.435606891758       5.122305517164488E-012 -2.148823918899299E-012
   353.228487897139       1.643711557073294E-012 -4.957066555286150E-012
   354.021368902519      -2.487704556241649E-012 -4.279451691728585E-012
   354.814249907900      -4.648874026749097E-012 -9.502262577112262E-013
   355.607130913281      -3.696829755618484E-012  2.755412934187452E-012
   356.400011918662      -3.821249088498201E-013  4.530225919586842E-012
   357.192892924042       3.167792907026873E-012  3.261784793531461E-012
   357.985773929423       4.592632629381860E-012 -3.144922412027589E-013
   358.778654934804       2.718836478071253E-012 -3.836196719031561E-012
   359.571535940185      -1.378132464752535E-012 -4.622244640382550E-012
   360.364416945566      -4.638565269629063E-012 -1.706859584722946E-012
   361.157297950946      -4.157354952986930E-012  2.832865450059788E-012
   361.950178956327      -4.835678091751066E-015  5.057194070680264E-012
   362.743059961708       4.172764381083498E-012  2.744818865705199E-012
   363.535940967089       4.400592649420858E-012 -1.977382984644535E-012
   364.328821972470       6.118785450904460E-013 -4.500341415441112E-012
   365.121702977850      -3.208548889419242E-012 -2.643586637476959E-012
   365.914583983231      -3.503204069022087E-012  1.179364117208665E-012
   366.707464988612      -7.640775450492434E-013  3.100911260079064E-012
   367.500345993993       1.825106019975964E-012  1.971094191626320E-012
   368.293226999373       2.184739044126237E-012 -3.138078933716989E-013
   369.086108004754       8.363529993727725E-013 -1.571244082599444E-012
   369.878989010135      -5.753936561311858E-013 -1.295595011362883E-012
   370.671870015516      -1.079196885002758E-012 -3.110858914612581E-013
   371.464751020897      -7.582385397155847E-013  4.705271027915688E-013
   372.257632026277      -1.528377496144573E-013  7.006011969327696E-013
   373.050513031658       3.087763785753860E-013  4.999798560598150E-013
   373.843394037039       4.759736313275637E-013  1.354015506551960E-013
   374.636275042420       3.894251024762236E-013 -1.845174101226003E-013
   375.429156047801       1.593040529288564E-013 -3.557451206486984E-013
   376.222037053181      -1.026132867454470E-013 -3.524074998397598E-013
   377.014918058562      -3.016563647447164E-013 -1.959893062591756E-013
   377.807799063943      -3.617613053943733E-013  5.524896231386885E-014
   378.600680069324      -2.376922566488244E-013  3.021755042619356E-013
   379.393561074704       4.884256320822304E-014  4.112604121420630E-013
   380.186442080085       3.662395600641611E-013  2.675296607068769E-013
   380.979323085466       4.869342664898585E-013 -1.142265353041661E-013
   381.772204090847       2.339011802555486E-013 -4.977690954308221E-013
   382.565085096228      -2.861012607927359E-013 -5.244392837796281E-013
   383.357966101608      -6.324112059222075E-013 -6.313669981768851E-014
   384.150847106989      -4.090808796552892E-013  5.147824937491362E-013
   384.943728112370       2.235215864708677E-013  6.188845461969484E-013
   385.736609117751       6.227280668539518E-013  1.233466964486798E-013
   386.529490123131       3.960065071606798E-013 -4.370114025394951E-013
   387.322371128512      -1.491176897092789E-013 -5.065821856694996E-013
   388.115252133893      -4.395965870238736E-013 -1.255809528618123E-013
   388.908133139274      -2.931470888739405E-013  2.490025522343378E-013
   389.701014144655       2.709649734271725E-014  3.154034541614516E-013
   390.493895150035       2.167092984332619E-013  1.380750933513780E-013
   391.286776155416       1.974333943504940E-013 -6.402535351193750E-014
   392.079657160797       6.765509667964292E-014 -1.542142958686015E-013
   392.872538166178      -5.336170732832944E-014 -1.278281827993060E-013
   393.665419171558      -1.074386313854681E-013 -4.503187793658609E-014
   394.458300176939      -9.450687456974410E-014  3.531747756984760E-014
   395.251181182320      -4.131699529467376E-014  8.047544218110352E-014
   396.044062187701       2.151401688958841E-014  8.144319694270427E-014
   396.836943193082       6.834803832688743E-014  4.441138093537324E-014
   397.629824198462       8.055943775095871E-014 -1.413734037783770E-014
   398.422705203843       4.953033228284388E-014 -6.873672494904753E-014
   399.215586209224      -1.598875866238240E-014 -8.854848597984674E-014
   400.008467214605      -8.265884684111345E-014 -5.103087020979954E-014
   400.801348219986      -1.000332133151333E-013  3.373099734549691E-014
   401.594229225366      -3.675657345339542E-014  1.082237998292460E-013
   402.387110230747       7.175359669205393E-014  9.872106251992524E-014
   403.179991236128       1.272005661944912E-013 -5.955048186640584E-015
   403.972872241509       6.273384066162959E-014 -1.125253591201617E-013
   404.765753246890      -6.294456126358588E-014 -1.087531076654009E-013
   405.558634252270      -1.177476072266272E-013 -5.512007188940852E-016
   406.351515257651      -5.409369153963180E-014  9.105978557243459E-014
   407.144396263032       4.322080566685468E-014  8.076233904806338E-014
   407.937277268413       7.627091652320238E-014  5.604715734617454E-015
   408.730158273793       3.838955163666138E-014 -4.871131533437252E-014
   409.523039279174      -1.330696360919882E-014 -4.741241468373934E-014
   410.315920284555      -3.564644537299364E-014 -1.489996623544273E-014
   411.108801289936      -2.705650349085246E-014  1.352825811500919E-014
   411.901682295317      -6.798065305217051E-015  2.288877319497387E-014
   412.694563300697       9.055482895131987E-015  1.691352289458517E-014
   413.487444306078       1.496668207194329E-014  5.158706796378696E-015
   414.280325311459       1.250134893154626E-014 -5.133025506893273E-015
   415.073206316840       5.505464896456381E-015 -1.066314954580953E-014
   415.866087322220      -2.437528471086929E-015 -1.085075659595281E-014
   416.658968327601      -8.577584687079472E-015 -6.502936234579234E-015
   417.451849332982      -1.083717172685363E-014  7.222995663745200E-016
   418.244730338363      -7.878128162432329E-015  8.205977131575332E-015
   419.037611343744       8.372803138285712E-017  1.228361504253935E-014
   419.830492349124       9.894393105936687E-015  9.268954777283177E-015
   420.623373354505       1.505990429764850E-014 -1.545284683993783E-015
   421.416254359886       9.098043115522128E-015 -1.425930964708410E-014
   422.209135365267      -6.888110756148117E-015 -1.738382364400900E-014
   423.002016370648      -1.980216960041957E-014 -4.171416797900571E-015
   423.794897376028      -1.460520628130347E-014  1.542452520410827E-014
   424.587778381409       6.098775574151271E-015  2.058225378546934E-014
   425.380659386790       2.027747101774812E-014  4.548184065789503E-015
   426.173540392171       1.274006608643943E-014 -1.439961028122722E-014
   426.966421397551      -5.621383629158502E-015 -1.605172891516337E-014
   427.759302402932      -1.417223164984398E-014 -2.711842050897012E-015
   428.552183408313      -7.964137516359123E-015  8.714560295114932E-015
   429.345064413694       2.286359702727888E-015  9.100828313861152E-015
   430.137945419075       6.798601788867287E-015  2.686006596196036E-015
   430.930826424455       4.859066933650855E-015 -2.853400702586869E-015
   431.723707429836       7.531902201295746E-016 -4.274881501574465E-015
   432.516588435217      -2.043776529777070E-015 -2.683922295632854E-015
   433.309469440598      -2.645413213581666E-015 -3.492870484881249E-016
   434.102350445978      -1.753484534596085E-015  1.268964858582670E-015
   434.895231451359      -3.786953004083467E-016  1.771459199286668E-015
   435.688112456740       7.631922477643738E-016  1.373043211352785E-015
   436.480993462121       1.327780887546660E-015  4.884590027751077E-016
   437.273874467502       1.238393097968618E-015 -4.670752450110345E-016
   438.066755472882       5.993436542649005E-016 -1.135150735986537E-015
   438.859636478263      -3.279900736496003E-016 -1.242917908085019E-015
   439.652517483644      -1.131567004338956E-015 -6.821057780467738E-016
   440.445398489025      -1.336985538787222E-015  3.553706465962495E-016
   441.238279494405      -6.669171533041882E-016  1.301904649086644E-015
   442.031160499786       6.034703462160454E-016  1.425058190132822E-015
   442.824041505167       1.568098023366122E-015  4.191586738249830E-016
   443.616922510548       1.302092009562358E-015 -1.051219615726595E-015
   444.409803515929      -1.252512207525287E-016 -1.679216695964810E-015
   445.202684521309      -1.433964104994462E-015 -8.057101212130098E-016
   445.995565526690      -1.377142024132923E-015  7.215574692921993E-016
   446.788446532071      -1.306891831572125E-016  1.414774961609347E-015
   447.581327537452       9.824357303346399E-016  7.841324370531755E-016
   448.374208542832       1.031433761780813E-015 -3.207943860999121E-016
   449.167089548213       2.801062283363058E-016 -8.615828900646415E-016
   449.959970553594      -4.310232782886073E-016 -6.089740225190079E-016
   450.752851558975      -6.063758602956481E-016 -3.157604791438871E-017
   451.545732564356      -3.345674201880138E-016  3.602252443576045E-016
   452.338613569736       3.891206297988184E-017  3.966314357933196E-016
   453.131494575117       2.584042195311103E-016  1.976781613469544E-016
   453.924375580498       2.660564930479666E-016 -3.843125854941875E-017
   454.717256585879       1.367407286825866E-016 -1.796155858435930E-016
   455.510137591260      -2.129414823058764E-017 -1.921074950445981E-016
   456.303018596640      -1.282193160495022E-016 -1.102485809121443E-016
   457.095899602021      -1.512454202579304E-016  5.159888828465388E-018
   457.888780607402      -9.874030613712228E-017  9.717333906883685E-017
   458.681661612783      -6.004073427495572E-018  1.294437535595736E-016
   459.474542618163       8.043130563766845E-017  9.382250343756609E-017
   460.267423623544       1.192418436387683E-016  1.142690000846796E-017
   461.060304628925       9.104727298327046E-017 -7.438644221844224E-017
   461.853185634306       1.044543738631533E-017 -1.158852113223851E-016
   462.646066639687      -7.635541639664930E-017 -8.682472896762879E-017
   463.438947645067      -1.148958740322558E-016 -2.768173281675100E-018
   464.231828650448      -7.828599138369292E-017  8.277316809581399E-017
   465.024709655829       9.978406672802471E-018  1.119745785291103E-016
   465.817590661210       8.918823731873489E-017  6.496439505855690E-017
   466.610471666591       1.050491293523647E-016 -2.414524162694818E-017
   467.403352671971       4.926993569739487E-017 -9.268576361073152E-017
   468.196233677352      -3.667565426507576E-017 -9.532904258275052E-017
   468.989114682733      -9.360050911944472E-017 -3.397038890670475E-017
   469.781995688114      -8.518650066648091E-017  4.741300871686161E-017
   470.574876693494      -1.946386258291614E-017  9.405291223024930E-017
   471.367757698875       5.846892685365996E-017  7.525249021966998E-017
   472.160638704256       9.514855277749913E-017  3.483182775422778E-018
   472.953519709637       6.317519334243499E-017 -7.182905038805792E-017
   473.746400715018      -1.724299098278690E-017 -9.485071330021991E-017
   474.539281720398      -8.649567670804791E-017 -4.419683855629735E-017
   475.332162725779      -8.711211704842703E-017  4.368244719693724E-017
   476.125043731160      -1.448303871141572E-017  9.584224155067972E-017
   476.917924736541       6.983380743252431E-017  6.464227835243252E-017
   477.710805741921       8.910886871100052E-017 -2.210856134768056E-017
   478.503686747302       2.764077273487261E-017 -8.218335737395876E-017
   479.296567752683      -5.072639104445212E-017 -6.170850911060193E-017
   480.089448758064      -7.095132790766899E-017  9.591247406801975E-018
   480.882329763445      -2.541390466182967E-017  5.689899577575491E-017
   481.675210768825       2.926324532007016E-017  4.375174638099058E-017
   482.468091774206       4.316814264653385E-017 -6.507068231787018E-019
   483.260972779587       1.886028422976843E-017 -2.884276554838210E-017
   484.053853784968      -9.755610507907304E-018 -2.504014291449249E-017
   484.846734790349      -1.978273980709980E-017 -5.692017803559041E-018
   485.639615795729      -1.284605351364710E-017  8.849503704236715E-018
   486.432496801110      -1.440072916831100E-018  1.170282325544876E-017
   487.225377806491       5.669137926418817E-018  6.952870577030718E-018
   488.018258811872       6.886782406982489E-018  8.089781855134461E-019
   488.811139817252       4.468080617364717E-018 -3.194336960379006E-018
   489.604020822633       1.059117263458944E-018 -4.365330413043397E-018
   490.396901828014      -1.683932377734761E-018 -3.422807657979485E-018
   491.189782833395      -3.074210634740596E-018 -1.392317583017170E-018
   491.982663838776      -3.002511624061316E-018  8.206432294078797E-019
   492.775544844156      -1.680534037345730E-018  2.469129434055958E-018
   493.568425849537       3.933856188868942E-019  2.941719994347558E-018
   494.361306854918       2.368300816349163E-018  1.894696837570617E-018
   495.154187860299       3.133983603309090E-018 -4.016186401951207E-019
   495.947068865680       1.869380007727146E-018 -2.745964712239298E-018
   496.739949871060      -1.007942950455028E-018 -3.337850150304099E-018
   497.532830876441      -3.404674829211180E-018 -1.211149162775091E-018
   498.325711881822      -2.943853170097823E-018  2.172771025795457E-018
   499.118592887203       2.836792726095429E-019  3.572278390445666E-018
   499.911473892583       3.033692950205806E-018  1.457847118350997E-018
   500.704354897964       2.457197951770103E-018 -1.739180829497277E-018
   501.497235903345      -3.025480877044823E-019 -2.533108561561345E-018
   502.290116908726      -1.897074958980845E-018 -7.574426204536895E-019
   503.082997914107      -1.202954253003719E-018  9.696680834613599E-019
   503.875878919487       1.546951193115494E-019  1.095943066836057E-018
   504.668759924868       6.844648390465509E-019  3.180120229364363E-019
   505.461640930249       4.299247596453489E-019 -2.427102402922357E-019
   506.254521935630       5.057718028581010E-020 -3.087447975046732E-019
   507.047402941010      -1.210551424001412E-019 -1.519121562833194E-019
   507.840283946391      -1.186684899488680E-019 -1.475425711234689E-020
   508.633164951772      -6.130184999817511E-020  4.117247565200922E-020
   509.426045957153      -1.445092753205104E-020  4.388608910347277E-020
   510.218926962534       8.655381960717432E-021  2.820585819376294E-020
   511.011807967914       1.485458383115164E-020  1.229769230985719E-020
   511.804688973295       1.275205476124452E-020  1.682382052029095E-021
   512.597569978676       7.892818264796902E-021 -3.545186888460915E-021
   513.390450984057       3.173812680784649E-021 -4.762494721129599E-021
   514.183331989437       1.998522223381568E-023 -3.538028161210486E-021
   514.976212994818      -1.046969806234971E-021 -1.496335894658914E-021
   515.769094000199      -5.307092263205894E-022 -1.638188640532657E-022
   516.561975005580      -2.851066612137895E-048  1.254855067228173E-048
