     4.00000     0.13288704E-03
     4.01200     0.13581016E-03
     4.02400     0.13880615E-03
     4.03600     0.14187780E-03
     4.04800     0.14502802E-03
     4.06000     0.14825987E-03
     4.07200     0.15157655E-03
     4.08400     0.15498141E-03
     4.09600     0.15847799E-03
     4.10800     0.16206999E-03
     4.12000     0.16576129E-03
     4.13200     0.16955601E-03
     4.14400     0.17345843E-03
     4.15600     0.17747309E-03
     4.16800     0.18160478E-03
     4.18000     0.18585852E-03
     4.19200     0.19023963E-03
     4.20400     0.19475372E-03
     4.21600     0.19940670E-03
     4.22800     0.20420485E-03
     4.24000     0.20915478E-03
     4.25200     0.21426352E-03
     4.26400     0.21953849E-03
     4.27600     0.22498760E-03
     4.28800     0.23061919E-03
     4.30000     0.23644218E-03
     4.31200     0.24246601E-03
     4.32400     0.24870076E-03
     4.33600     0.25515714E-03
     4.34800     0.26184659E-03
     4.36000     0.26878133E-03
     4.37200     0.27597442E-03
     4.38400     0.28343981E-03
     4.39600     0.29119248E-03
     4.40800     0.29924847E-03
     4.42000     0.30762502E-03
     4.43200     0.31634068E-03
     4.44400     0.32541540E-03
     4.45600     0.33487073E-03
     4.46800     0.34472993E-03
     4.48000     0.35501816E-03
     4.49200     0.36576271E-03
     4.50400     0.37699320E-03
     4.51600     0.38874184E-03
     4.52800     0.40104376E-03
     4.54000     0.41393734E-03
     4.55200     0.42746458E-03
     4.56400     0.44167160E-03
     4.57600     0.45660917E-03
     4.58800     0.47233332E-03
     4.60000     0.48890608E-03
     4.61200     0.50639641E-03
     4.62400     0.52488119E-03
     4.63600     0.54444655E-03
     4.64800     0.56518936E-03
     4.66000     0.58721920E-03
     4.67200     0.61066060E-03
     4.68400     0.63565600E-03
     4.69600     0.66236933E-03
     4.70800     0.69099052E-03
     4.72000     0.72174113E-03
     4.73200     0.75488148E-03
     4.74400     0.79071949E-03
     4.75600     0.82962179E-03
     4.76800     0.87202744E-03
     4.78000     0.91846485E-03
     4.79200     0.96957242E-03
     4.80400     0.10261233E-02
     4.81600     0.10890547E-02
     4.82800     0.11595021E-02
     4.84000     0.12388378E-02
     4.85200     0.13287141E-02
     4.86400     0.14311090E-02
     4.87600     0.15483731E-02
     4.88800     0.16832753E-02
     4.90000     0.18390429E-02
     4.91200     0.20193919E-02
     4.92400     0.22285416E-02
     4.93600     0.24712078E-02
     4.94800     0.27525675E-02
     4.96000     0.30781888E-02
     4.97200     0.34539215E-02
     4.98400     0.38857436E-02
     4.99600     0.43795634E-02
     5.00800     0.49409798E-02
     5.02000     0.55750077E-02
     5.03200     0.62857788E-02
     5.04400     0.70762344E-02
     5.05600     0.79478307E-02
     5.06800     0.89002771E-02
     5.08000     0.99313335E-02
     5.09200     0.11036689E-01
     5.10400     0.12209939E-01
     5.11600     0.13442682E-01
     5.12800     0.14724730E-01
     5.14000     0.16044437E-01
     5.15200     0.17389133E-01
     5.16400     0.18745625E-01
     5.17600     0.20100746E-01
     5.18800     0.21441902E-01
     5.20000     0.22757576E-01
     5.21200     0.24037749E-01
     5.22400     0.25274200E-01
     5.23600     0.26460659E-01
     5.24800     0.27592803E-01
     5.26000     0.28668092E-01
     5.27200     0.29685474E-01
     5.28400     0.30644975E-01
     5.29600     0.31547239E-01
     5.30800     0.32393042E-01
     5.32000     0.33182853E-01
     5.33200     0.33916482E-01
     5.34400     0.34592842E-01
     5.35600     0.35209860E-01
     5.36800     0.35764544E-01
     5.38000     0.36253182E-01
     5.39200     0.36671666E-01
     5.40400     0.37015889E-01
     5.41600     0.37282168E-01
     5.42800     0.37467658E-01
     5.44000     0.37570694E-01
     5.45200     0.37591032E-01
     5.46400     0.37529968E-01
     5.47600     0.37390313E-01
     5.48800     0.37176245E-01
     5.50000     0.36893036E-01
     5.51200     0.36546717E-01
     5.52400     0.36143686E-01
     5.53600     0.35690324E-01
     5.54800     0.35192650E-01
     5.56000     0.34656048E-01
     5.57200     0.34085092E-01
     5.58400     0.33483470E-01
     5.59600     0.32854020E-01
     5.60800     0.32198853E-01
     5.62000     0.31519542E-01
     5.63200     0.30817350E-01
     5.64400     0.30093473E-01
     5.65600     0.29349256E-01
     5.66800     0.28586360E-01
     5.68000     0.27806880E-01
     5.69200     0.27013379E-01
     5.70400     0.26208862E-01
     5.71600     0.25396682E-01
     5.72800     0.24580407E-01
     5.74000     0.23763655E-01
     5.75200     0.22949929E-01
     5.76400     0.22142460E-01
     5.77600     0.21344087E-01
     5.78800     0.20557172E-01
     5.80000     0.19783563E-01
     5.81200     0.19024609E-01
     5.82400     0.18281208E-01
     5.83600     0.17553889E-01
     5.84800     0.16842912E-01
     5.86000     0.16148374E-01
     5.87200     0.15470307E-01
     5.88400     0.14808759E-01
     5.89600     0.14163854E-01
     5.90800     0.13535820E-01
     5.92000     0.12924993E-01
     5.93200     0.12331801E-01
     5.94400     0.11756723E-01
     5.95600     0.11200241E-01
     5.96800     0.10662793E-01
     5.98000     0.10144724E-01
     5.99200     0.96462476E-02
     6.00400     0.91674233E-02
     6.01600     0.87081482E-02
     6.02800     0.82681616E-02
     6.04000     0.78470645E-02
     6.05200     0.74443467E-02
     6.06400     0.70594208E-02
     6.07600     0.66916565E-02
     6.08800     0.63404127E-02
     6.10000     0.60050644E-02
     6.11200     0.56850214E-02
     6.12400     0.53797395E-02
     6.13600     0.50887232E-02
     6.14800     0.48115214E-02
     6.16000     0.45477181E-02
     6.17200     0.42969200E-02
     6.18400     0.40587432E-02
     6.19600     0.38328009E-02
     6.20800     0.36186936E-02
     6.22000     0.34160029E-02
     6.23200     0.32242892E-02
     6.24400     0.30430930E-02
     6.25600     0.28719392E-02
     6.26800     0.27103445E-02
     6.28000     0.25578248E-02
     6.29200     0.24139035E-02
     6.30400     0.22781190E-02
     6.31600     0.21500305E-02
     6.32800     0.20292219E-02
     6.34000     0.19153036E-02
     6.35200     0.18079130E-02
     6.36400     0.17067123E-02
     6.37600     0.16113861E-02
     6.38800     0.15216374E-02
     6.40000     0.14371848E-02
     6.41200     0.13577583E-02
     6.42400     0.12830973E-02
     6.43600     0.12129484E-02
     6.44800     0.11470642E-02
     6.46000     0.10852037E-02
     6.47200     0.10271320E-02
     6.48400     0.97262198E-03
     6.49600     0.92145513E-03
     6.50800     0.87342278E-03
     6.52000     0.82832714E-03
     6.53200     0.78598209E-03
     6.54400     0.74621341E-03
     6.55600     0.70885877E-03
     6.56800     0.67376724E-03
     6.58000     0.64079858E-03
     6.59200     0.60982225E-03
     6.60400     0.58071640E-03
     6.61600     0.55336683E-03
     6.62800     0.52766605E-03
     6.64000     0.50351244E-03
     6.65200     0.48080968E-03
     6.66400     0.45946631E-03
     6.67600     0.43939541E-03
     6.68800     0.42051451E-03
     6.70000     0.40274555E-03
     6.71200     0.38601487E-03
     6.72400     0.37025323E-03
     6.73600     0.35539581E-03
     6.74800     0.34138214E-03
     6.76000     0.32815600E-03
     6.77200     0.31566520E-03
     6.78400     0.30386140E-03
     6.79600     0.29269977E-03
     6.80800     0.28213876E-03
     6.82000     0.27213974E-03
     6.83200     0.26266676E-03
     6.84400     0.25368625E-03
     6.85600     0.24516681E-03
     6.86800     0.23707901E-03
     6.88000     0.22939527E-03
     6.89200     0.22208968E-03
     6.90400     0.21513795E-03
     6.91600     0.20851736E-03
     6.92800     0.20220661E-03
     6.94000     0.19618587E-03
     6.95200     0.19043665E-03
     6.96400     0.18494175E-03
     6.97600     0.17968522E-03
     6.98800     0.17465225E-03
     7.00000     0.16982912E-03
     7.01200     0.16520309E-03
     7.02400     0.16076234E-03
     7.03600     0.15649588E-03
     7.04800     0.15239349E-03
     7.06000     0.14844562E-03
     7.07200     0.14464337E-03
     7.08400     0.14097843E-03
     7.09600     0.13744299E-03
     7.10800     0.13402977E-03
     7.12000     0.13073194E-03
     7.13200     0.12754313E-03
     7.14400     0.12445735E-03
     7.15600     0.12146902E-03
     7.16800     0.11857294E-03
     7.18000     0.11576422E-03
     7.19200     0.11303832E-03
     7.20400     0.11039099E-03
     7.21600     0.10781826E-03
     7.22800     0.10531643E-03
     7.24000     0.10288201E-03
     7.25200     0.10051175E-03
     7.26400     0.98202596E-04
     7.27600     0.95951681E-04
     7.28800     0.93756303E-04
     7.30000     0.91613920E-04
     7.31200     0.89522134E-04
     7.32400     0.87478685E-04
     7.33600     0.85481438E-04
     7.34800     0.83528377E-04
     7.36000     0.81617599E-04
     7.37200     0.79747304E-04
     7.38400     0.77915788E-04
     7.39600     0.76121442E-04
     7.40800     0.74362741E-04
     7.42000     0.72638240E-04
     7.43200     0.70946569E-04
     7.44400     0.69286428E-04
     7.45600     0.67656579E-04
     7.46800     0.66055847E-04
     7.48000     0.64483111E-04
     7.49200     0.62937302E-04
     7.50400     0.61417402E-04
     7.51600     0.59922434E-04
     7.52800     0.58451466E-04
     7.54000     0.57003606E-04
     7.55200     0.55577998E-04
     7.56400     0.54173822E-04
     7.57600     0.52790291E-04
     7.58800     0.51426648E-04
     7.60000     0.50082168E-04
     7.61200     0.48756151E-04
     7.62400     0.47447923E-04
     7.63600     0.46156838E-04
     7.64800     0.44882268E-04
     7.66000     0.43623612E-04
     7.67200     0.42380284E-04
     7.68400     0.41151722E-04
     7.69600     0.39937380E-04
     7.70800     0.38736728E-04
     7.72000     0.37549255E-04
     7.73200     0.36374462E-04
     7.74400     0.35211867E-04
     7.75600     0.34061000E-04
     7.76800     0.32921404E-04
     7.78000     0.31792634E-04
     7.79200     0.30674259E-04
     7.80400     0.29565855E-04
     7.81600     0.28467011E-04
     7.82800     0.27377325E-04
     7.84000     0.26296404E-04
     7.85200     0.25223863E-04
     7.86400     0.24159327E-04
     7.87600     0.23102428E-04
     7.88800     0.22052804E-04
     7.90000     0.21010102E-04
     7.91200     0.19973974E-04
     7.92400     0.18944078E-04
     7.93600     0.17920081E-04
     7.94800     0.16901650E-04
     7.96000     0.15888460E-04
     7.97200     0.14880193E-04
     7.98400     0.13876530E-04
     7.99600     0.12877161E-04
     8.00800     0.11881778E-04
     8.02000     0.10890075E-04
     8.03200     0.99017527E-05
     8.04400     0.89165116E-05
     8.05600     0.79340567E-05
     8.06800     0.69540950E-05
     8.08000     0.59763357E-05
     8.09200     0.50004904E-05
     8.10400     0.40262719E-05
     8.11600     0.30533950E-05
     8.12800     0.20815756E-05
     8.14000     0.11105307E-05
     8.15200     0.13997817E-06
     8.16400    -0.83036346E-06
     8.17600    -0.18007753E-05
     8.18800    -0.27715382E-05
     8.20000    -0.37429330E-05
     8.21200    -0.47152409E-05
     8.22400    -0.56887435E-05
     8.23600    -0.66637230E-05
     8.24800    -0.76404624E-05
     8.26000    -0.86192461E-05
     8.27200    -0.96003595E-05
     8.28400    -0.10584090E-04
     8.29600    -0.11570725E-04
     8.30800    -0.12560557E-04
     8.32000    -0.13553878E-04
     8.33200    -0.14550984E-04
     8.34400    -0.15552172E-04
     8.35600    -0.16557744E-04
     8.36800    -0.17568004E-04
     8.38000    -0.18583258E-04
     8.39200    -0.19603818E-04
     8.40400    -0.20629998E-04
     8.41600    -0.21662118E-04
     8.42800    -0.22700501E-04
     8.44000    -0.23745475E-04
     8.45200    -0.24797373E-04
     8.46400    -0.25856532E-04
     8.47600    -0.26923296E-04
     8.48800    -0.27998015E-04
     8.50000    -0.29081044E-04
     8.51200    -0.30172744E-04
     8.52400    -0.31273485E-04
     8.53600    -0.32383642E-04
     8.54800    -0.33503598E-04
     8.56000    -0.34633743E-04
     8.57200    -0.35774477E-04
     8.58400    -0.36926207E-04
     8.59600    -0.38089350E-04
     8.60800    -0.39264330E-04
     8.62000    -0.40451584E-04
     8.63200    -0.41651557E-04
     8.64400    -0.42864705E-04
     8.65600    -0.44091496E-04
     8.66800    -0.45332408E-04
     8.68000    -0.46587934E-04
     8.69200    -0.47858576E-04
     8.70400    -0.49144853E-04
     8.71600    -0.50447294E-04
     8.72800    -0.51766446E-04
     8.74000    -0.53102868E-04
     8.75200    -0.54457137E-04
     8.76400    -0.55829845E-04
     8.77600    -0.57221603E-04
     8.78800    -0.58633037E-04
     8.80000    -0.60064795E-04
     8.81200    -0.61517542E-04
     8.82400    -0.62991964E-04
     8.83600    -0.64488769E-04
     8.84800    -0.66008687E-04
     8.86000    -0.67552471E-04
     8.87200    -0.69120898E-04
     8.88400    -0.70714772E-04
     8.89600    -0.72334921E-04
     8.90800    -0.73982202E-04
     8.92000    -0.75657503E-04
     8.93200    -0.77361739E-04
     8.94400    -0.79095858E-04
     8.95600    -0.80860843E-04
     8.96800    -0.82657711E-04
     8.98000    -0.84487513E-04
     8.99200    -0.86351341E-04
     9.00400    -0.88250327E-04
