  32262.1600     0.19601E-06 
  32294.4222     0.19963E-06 
  32326.6843     0.20332E-06 
  32358.9465     0.20709E-06 
  32391.2086     0.21092E-06 
  32423.4708     0.21482E-06 
  32455.7330     0.21880E-06 
  32487.9951     0.22285E-06 
  32520.2573     0.22698E-06 
  32552.5194     0.23119E-06 
  32584.7816     0.23548E-06 
  32617.0438     0.23985E-06 
  32649.3059     0.24430E-06 
  32681.5681     0.24883E-06 
  32713.8302     0.25346E-06 
  32746.0924     0.25817E-06 
  32778.3546     0.26297E-06 
  32810.6167     0.26786E-06 
  32842.8789     0.27285E-06 
  32875.1410     0.27793E-06 
  32907.4032     0.28311E-06 
  32939.6654     0.28839E-06 
  32971.9275     0.29377E-06 
  33004.1897     0.29925E-06 
  33036.4518     0.30485E-06 
  33068.7140     0.31055E-06 
  33100.9762     0.31636E-06 
  33133.2383     0.32228E-06 
  33165.5005     0.32832E-06 
  33197.7626     0.33448E-06 
  33230.0248     0.34076E-06 
  33262.2870     0.34716E-06 
  33294.5491     0.35369E-06 
  33326.8113     0.36034E-06 
  33359.0734     0.36713E-06 
  33391.3356     0.37405E-06 
  33423.5978     0.38111E-06 
  33455.8599     0.38831E-06 
  33488.1221     0.39565E-06 
  33520.3842     0.40314E-06 
  33552.6464     0.41078E-06 
  33584.9086     0.41857E-06 
  33617.1707     0.42652E-06 
  33649.4329     0.43463E-06 
  33681.6950     0.44290E-06 
  33713.9572     0.45134E-06 
  33746.2194     0.45995E-06 
  33778.4815     0.46873E-06 
  33810.7437     0.47769E-06 
  33843.0058     0.48684E-06 
  33875.2680     0.49617E-06 
  33907.5302     0.50569E-06 
  33939.7923     0.51541E-06 
  33972.0545     0.52532E-06 
  34004.3166     0.53544E-06 
  34036.5788     0.54578E-06 
  34068.8410     0.55632E-06 
  34101.1031     0.56708E-06 
  34133.3653     0.57807E-06 
  34165.6274     0.58929E-06 
  34197.8896     0.60074E-06 
  34230.1518     0.61243E-06 
  34262.4139     0.62436E-06 
  34294.6761     0.63655E-06 
  34326.9382     0.64899E-06 
  34359.2004     0.66170E-06 
  34391.4626     0.67468E-06 
  34423.7247     0.68793E-06 
  34455.9869     0.70147E-06 
  34488.2490     0.71529E-06 
  34520.5112     0.72942E-06 
  34552.7734     0.74384E-06 
  34585.0355     0.75858E-06 
  34617.2977     0.77363E-06 
  34649.5598     0.78901E-06 
  34681.8220     0.80473E-06 
  34714.0842     0.82079E-06 
  34746.3463     0.83720E-06 
  34778.6085     0.85397E-06 
  34810.8706     0.87110E-06 
  34843.1328     0.88862E-06 
  34875.3950     0.90652E-06 
  34907.6571     0.92482E-06 
  34939.9193     0.94352E-06 
  34972.1814     0.96264E-06 
  35004.4436     0.98219E-06 
  35036.7058     0.10022E-05 
  35068.9679     0.10226E-05 
  35101.2301     0.10435E-05 
  35133.4922     0.10649E-05 
  35165.7544     0.10867E-05 
  35198.0166     0.11091E-05 
  35230.2787     0.11320E-05 
  35262.5409     0.11554E-05 
  35294.8030     0.11793E-05 
  35327.0652     0.12038E-05 
  35359.3274     0.12288E-05 
  35391.5895     0.12544E-05 
  35423.8517     0.12806E-05 
  35456.1138     0.13075E-05 
  35488.3760     0.13349E-05 
  35520.6382     0.13630E-05 
  35552.9003     0.13918E-05 
  35585.1625     0.14213E-05 
  35617.4246     0.14514E-05 
  35649.6868     0.14823E-05 
  35681.9490     0.15139E-05 
  35714.2111     0.15463E-05 
  35746.4733     0.15794E-05 
  35778.7354     0.16134E-05 
  35810.9976     0.16481E-05 
  35843.2598     0.16838E-05 
  35875.5219     0.17202E-05 
  35907.7841     0.17576E-05 
  35940.0462     0.17959E-05 
  35972.3084     0.18352E-05 
  36004.5706     0.18754E-05 
  36036.8327     0.19166E-05 
  36069.0949     0.19589E-05 
  36101.3570     0.20022E-05 
  36133.6192     0.20466E-05 
  36165.8814     0.20921E-05 
  36198.1435     0.21388E-05 
  36230.4057     0.21866E-05 
  36262.6678     0.22357E-05 
  36294.9300     0.22861E-05 
  36327.1922     0.23377E-05 
  36359.4543     0.23907E-05 
  36391.7165     0.24451E-05 
  36423.9786     0.25008E-05 
  36456.2408     0.25581E-05 
  36488.5030     0.26168E-05 
  36520.7651     0.26771E-05 
  36553.0273     0.27390E-05 
  36585.2894     0.28025E-05 
  36617.5516     0.28678E-05 
  36649.8138     0.29348E-05 
  36682.0759     0.30036E-05 
  36714.3381     0.30742E-05 
  36746.6002     0.31468E-05 
  36778.8624     0.32214E-05 
  36811.1246     0.32980E-05 
  36843.3867     0.33768E-05 
  36875.6489     0.34577E-05 
  36907.9110     0.35409E-05 
  36940.1732     0.36264E-05 
  36972.4354     0.37143E-05 
  37004.6975     0.38047E-05 
  37036.9597     0.38977E-05 
  37069.2218     0.39933E-05 
  37101.4840     0.40916E-05 
  37133.7462     0.41928E-05 
  37166.0083     0.42969E-05 
  37198.2705     0.44041E-05 
  37230.5326     0.45144E-05 
  37262.7948     0.46279E-05 
  37295.0570     0.47448E-05 
  37327.3191     0.48651E-05 
  37359.5813     0.49890E-05 
  37391.8434     0.51167E-05 
  37424.1056     0.52482E-05 
  37456.3678     0.53837E-05 
  37488.6299     0.55233E-05 
  37520.8921     0.56672E-05 
  37553.1542     0.58155E-05 
  37585.4164     0.59685E-05 
  37617.6786     0.61262E-05 
  37649.9407     0.62888E-05 
  37682.2029     0.64566E-05 
  37714.4650     0.66297E-05 
  37746.7272     0.68083E-05 
  37778.9894     0.69926E-05 
  37811.2515     0.71829E-05 
  37843.5137     0.73794E-05 
  37875.7758     0.75823E-05 
  37908.0380     0.77918E-05 
  37940.3002     0.80083E-05 
  37972.5623     0.82319E-05 
  38004.8245     0.84631E-05 
  38037.0866     0.87020E-05 
  38069.3488     0.89491E-05 
  38101.6110     0.92045E-05 
  38133.8731     0.94688E-05 
  38166.1353     0.97421E-05 
  38198.3974     0.10025E-04 
  38230.6596     0.10318E-04 
  38262.9218     0.10621E-04 
  38295.1839     0.10935E-04 
  38327.4461     0.11260E-04 
  38359.7082     0.11597E-04 
  38391.9704     0.11946E-04 
  38424.2326     0.12307E-04 
  38456.4947     0.12683E-04 
  38488.7569     0.13071E-04 
  38521.0190     0.13475E-04 
  38553.2812     0.13894E-04 
  38585.5434     0.14328E-04 
  38617.8055     0.14779E-04 
  38650.0677     0.15248E-04 
  38682.3298     0.15734E-04 
  38714.5920     0.16240E-04 
  38746.8542     0.16765E-04 
  38779.1163     0.17312E-04 
  38811.3785     0.17880E-04 
  38843.6406     0.18471E-04 
  38875.9028     0.19086E-04 
  38908.1650     0.19727E-04 
  38940.4271     0.20394E-04 
  38972.6893     0.21089E-04 
  39004.9514     0.21813E-04 
  39037.2136     0.22568E-04 
  39069.4758     0.23355E-04 
  39101.7379     0.24176E-04 
  39134.0001     0.25033E-04 
  39166.2622     0.25928E-04 
  39198.5244     0.26863E-04 
  39230.7866     0.27839E-04 
  39263.0487     0.28860E-04 
  39295.3109     0.29928E-04 
  39327.5730     0.31045E-04 
  39359.8352     0.32215E-04 
  39392.0974     0.33439E-04 
  39424.3595     0.34722E-04 
  39456.6217     0.36067E-04 
  39488.8838     0.37477E-04 
  39521.1460     0.38956E-04 
  39553.4082     0.40510E-04 
  39585.6703     0.42141E-04 
  39617.9325     0.43855E-04 
  39650.1946     0.45658E-04 
  39682.4568     0.47555E-04 
  39714.7190     0.49551E-04 
  39746.9811     0.51654E-04 
  39779.2433     0.53871E-04 
  39811.5054     0.56208E-04 
  39843.7676     0.58675E-04 
  39876.0298     0.61281E-04 
  39908.2919     0.64034E-04 
  39940.5541     0.66945E-04 
  39972.8162     0.70027E-04 
  40005.0784     0.73290E-04 
  40037.3406     0.76749E-04 
  40069.6027     0.80418E-04 
  40101.8649     0.84314E-04 
  40134.1270     0.88453E-04 
  40166.3892     0.92855E-04 
  40198.6514     0.97540E-04 
  40230.9135     0.10253E-03 
  40263.1757     0.10786E-03 
  40295.4378     0.11354E-03 
  40327.7000     0.11961E-03 
  40359.9622     0.12611E-03 
  40392.2243     0.13307E-03 
  40424.4865     0.14053E-03 
  40456.7486     0.14854E-03 
  40489.0108     0.15714E-03 
  40521.2730     0.16640E-03 
  40553.5351     0.17638E-03 
  40585.7973     0.18715E-03 
  40618.0594     0.19879E-03 
  40650.3216     0.21138E-03 
  40682.5838     0.22502E-03 
  40714.8459     0.23984E-03 
  40747.1081     0.25594E-03 
  40779.3702     0.27348E-03 
  40811.6324     0.29261E-03 
  40843.8946     0.31352E-03 
  40876.1567     0.33642E-03 
  40908.4189     0.36155E-03 
  40940.6810     0.38917E-03 
  40972.9432     0.41959E-03 
  41005.2054     0.45318E-03 
  41037.4675     0.49033E-03 
  41069.7297     0.53152E-03 
  41101.9918     0.57729E-03 
  41134.2540     0.62824E-03 
  41166.5162     0.68510E-03 
  41198.7783     0.74866E-03 
  41231.0405     0.81986E-03 
  41263.3026     0.89973E-03 
  41295.5648     0.98945E-03 
  41327.8270     0.10903E-02 
  41360.0891     0.12038E-02 
  41392.3513     0.13312E-02 
  41424.6134     0.14743E-02 
  41456.8756     0.16344E-02 
  41489.1378     0.18128E-02 
  41521.3999     0.20107E-02 
  41553.6621     0.22286E-02 
  41585.9242     0.24664E-02 
  41618.1864     0.27236E-02 
  41650.4486     0.29985E-02 
  41682.7107     0.32888E-02 
  41714.9729     0.35913E-02 
  41747.2350     0.39020E-02 
  41779.4972     0.42162E-02 
  41811.7594     0.45286E-02 
  41844.0215     0.48335E-02 
  41876.2837     0.51248E-02 
  41908.5458     0.53964E-02 
  41940.8080     0.56423E-02 
  41973.0702     0.58566E-02 
  42005.3323     0.60341E-02 
  42037.5945     0.61702E-02 
  42069.8566     0.62610E-02 
  42102.1188     0.63038E-02 
  42134.3810     0.62973E-02 
  42166.6431     0.62412E-02 
  42198.9053     0.61365E-02 
  42231.1674     0.59857E-02 
  42263.4296     0.57922E-02 
  42295.6918     0.55604E-02 
  42327.9539     0.52956E-02 
  42360.2161     0.50034E-02 
  42392.4782     0.46898E-02 
  42424.7404     0.43609E-02 
  42457.0026     0.40227E-02 
  42489.2647     0.36806E-02 
  42521.5269     0.33399E-02 
  42553.7890     0.30050E-02 
  42586.0512     0.26798E-02 
  42618.3134     0.23678E-02 
  42650.5755     0.20714E-02 
  42682.8377     0.17929E-02 
  42715.0998     0.15337E-02 
  42747.3620     0.12949E-02 
  42779.6242     0.10774E-02 
  42811.8863     0.88142E-03 
  42844.1485     0.70730E-03 
  42876.4106     0.55512E-03 
  42908.6728     0.42492E-03 
  42940.9350     0.31677E-03 
  42973.1971     0.23079E-03 
  43005.4593     0.16722E-03 
  43037.7214     0.12649E-03 
  43069.9836     0.10918E-03 
  43102.2458     0.11610E-03 
  43134.5079     0.14824E-03 
  43166.7701     0.20677E-03 
  43199.0322     0.29295E-03 
  43231.2944     0.40813E-03 
  43263.5566     0.55357E-03 
  43295.8187     0.73035E-03 
  43328.0809     0.93921E-03 
  43360.3430     0.11804E-02 
  43392.6052     0.14536E-02 
  43424.8674     0.17577E-02 
  43457.1295     0.20908E-02 
  43489.3917     0.24501E-02 
  43521.6538     0.28319E-02 
  43553.9160     0.32316E-02 
  43586.1782     0.36438E-02 
  43618.4403     0.40626E-02 
  43650.7025     0.44813E-02 
  43682.9646     0.48929E-02 
  43715.2268     0.52900E-02 
  43747.4890     0.56654E-02 
  43779.7511     0.60120E-02 
  43812.0133     0.63231E-02 
  43844.2754     0.65929E-02 
  43876.5376     0.68163E-02 
  43908.7998     0.69897E-02 
  43941.0619     0.71103E-02 
  43973.3241     0.71770E-02 
  44005.5862     0.71899E-02 
  44037.8484     0.71504E-02 
  44070.1106     0.70609E-02 
  44102.3727     0.69252E-02 
  44134.6349     0.67474E-02 
  44166.8970     0.65326E-02 
  44199.1592     0.62860E-02 
  44231.4214     0.60131E-02 
  44263.6835     0.57193E-02 
  44295.9457     0.54099E-02 
  44328.2078     0.50898E-02 
  44360.4700     0.47634E-02 
  44392.7322     0.44348E-02 
  44424.9943     0.41076E-02 
  44457.2565     0.37846E-02 
  44489.5186     0.34685E-02 
  44521.7808     0.31611E-02 
  44554.0430     0.28642E-02 
  44586.3051     0.25790E-02 
  44618.5673     0.23063E-02 
  44650.8294     0.20469E-02 
  44683.0916     0.18013E-02 
  44715.3538     0.15698E-02 
  44747.6159     0.13527E-02 
  44779.8781     0.11503E-02 
  44812.1402     0.96274E-03 
  44844.4024     0.79047E-03 
  44876.6646     0.63384E-03 
  44908.9267     0.49336E-03 
  44941.1889     0.36959E-03 
  44973.4510     0.26324E-03 
  45005.7132     0.17504E-03 
  45037.9754     0.10579E-03 
  45070.2375     0.56260E-04 
  45102.4997     0.27154E-04 
  45134.7618     0.19031E-04 
  45167.0240     0.32244E-04 
  45199.2862     0.66869E-04 
  45231.5483     0.12265E-03 
  45263.8105     0.19895E-03 
  45296.0726     0.29474E-03 
  45328.3348     0.40855E-03 
  45360.5970     0.53850E-03 
  45392.8591     0.68233E-03 
  45425.1213     0.83739E-03 
  45457.3834     0.10008E-02 
  45489.6456     0.11693E-02 
  45521.9078     0.13396E-02 
  45554.1699     0.15083E-02 
  45586.4321     0.16721E-02 
  45618.6942     0.18279E-02 
  45650.9564     0.19727E-02 
  45683.2186     0.21041E-02 
  45715.4807     0.22198E-02 
  45747.7429     0.23182E-02 
  45780.0050     0.23983E-02 
  45812.2672     0.24593E-02 
  45844.5294     0.25011E-02 
  45876.7915     0.25240E-02 
  45909.0537     0.25287E-02 
  45941.3158     0.25163E-02 
  45973.5780     0.24880E-02 
  46005.8402     0.24453E-02 
  46038.1023     0.23897E-02 
  46070.3645     0.23230E-02 
  46102.6266     0.22467E-02 
  46134.8888     0.21625E-02 
  46167.1510     0.20718E-02 
  46199.4131     0.19761E-02 
  46231.6753     0.18766E-02 
  46263.9374     0.17744E-02 
  46296.1996     0.16706E-02 
  46328.4618     0.15661E-02 
  46360.7239     0.14616E-02 
  46392.9861     0.13577E-02 
  46425.2482     0.12550E-02 
  46457.5104     0.11540E-02 
  46489.7726     0.10552E-02 
  46522.0347     0.95876E-03 
  46554.2969     0.86518E-03 
  46586.5590     0.77477E-03 
  46618.8212     0.68787E-03 
  46651.0834     0.60482E-03 
  46683.3455     0.52599E-03 
  46715.6077     0.45177E-03 
  46747.8698     0.38254E-03 
  46780.1320     0.31874E-03 
  46812.3942     0.26078E-03 
  46844.6563     0.20907E-03 
  46876.9185     0.16400E-03 
  46909.1806     0.12591E-03 
  46941.4428     0.95079E-04 
  46973.7050     0.71707E-04 
  47005.9671     0.55892E-04 
  47038.2293     0.47622E-04 
  47070.4914     0.46763E-04 
  47102.7536     0.53052E-04 
  47135.0158     0.66100E-04 
  47167.2779     0.85389E-04 
  47199.5401     0.11029E-03 
  47231.8022     0.14005E-03 
  47264.0644     0.17387E-03 
  47296.3266     0.21083E-03 
  47328.5887     0.25000E-03 
  47360.8509     0.29045E-03 
  47393.1130     0.33123E-03 
  47425.3752     0.37146E-03 
  47457.6374     0.41030E-03 
  47489.8995     0.44703E-03 
  47522.1617     0.48100E-03 
  47554.4238     0.51170E-03 
  47586.6860     0.53873E-03 
  47618.9482     0.56181E-03 
  47651.2103     0.58077E-03 
  47683.4725     0.59557E-03 
  47715.7346     0.60623E-03 
  47747.9968     0.61287E-03 
  47780.2590     0.61568E-03 
  47812.5211     0.61489E-03 
  47844.7833     0.61077E-03 
  47877.0454     0.60360E-03 
  47909.3076     0.59371E-03 
  47941.5698     0.58137E-03 
  47973.8319     0.56691E-03 
  48006.0941     0.55059E-03 
  48038.3562     0.53270E-03 
  48070.6184     0.51349E-03 
  48102.8806     0.49318E-03 
  48135.1427     0.47199E-03 
  48167.4049     0.45011E-03 
  48199.6670     0.42773E-03 
  48231.9292     0.40500E-03 
  48264.1914     0.38208E-03 
  48296.4535     0.35911E-03 
  48328.7157     0.33623E-03 
  48360.9778     0.31358E-03 
  48393.2400     0.29128E-03 
  48425.5022     0.26947E-03 
  48457.7643     0.24828E-03 
  48490.0265     0.22784E-03 
  48522.2886     0.20828E-03 
  48554.5508     0.18975E-03 
  48586.8130     0.17236E-03 
  48619.0751     0.15624E-03 
  48651.3373     0.14150E-03 
  48683.5994     0.12824E-03 
  48715.8616     0.11655E-03 
  48748.1238     0.10649E-03 
  48780.3859     0.98097E-04 
  48812.6481     0.91391E-04 
  48844.9102     0.86362E-04 
  48877.1724     0.82971E-04 
  48909.4346     0.81153E-04 
  48941.6967     0.80817E-04 
  48973.9589     0.81846E-04 
  49006.2210     0.84102E-04 
  49038.4832     0.87428E-04 
  49070.7454     0.91653E-04 
  49103.0075     0.96596E-04 
  49135.2697     0.10207E-03 
  49167.5318     0.10790E-03 
  49199.7940     0.11390E-03 
  49232.0562     0.11991E-03 
  49264.3183     0.12576E-03 
  49296.5805     0.13134E-03 
  49328.8426     0.13653E-03 
  49361.1048     0.14122E-03 
  49393.3670     0.14535E-03 
  49425.6291     0.14887E-03 
  49457.8913     0.15174E-03 
  49490.1534     0.15394E-03 
  49522.4156     0.15548E-03 
  49554.6778     0.15637E-03 
  49586.9399     0.15662E-03 
  49619.2021     0.15627E-03 
  49651.4642     0.15536E-03 
  49683.7264     0.15392E-03 
  49715.9886     0.15201E-03 
  49748.2507     0.14966E-03 
  49780.5129     0.14692E-03 
  49812.7750     0.14383E-03 
  49845.0372     0.14043E-03 
  49877.2994     0.13677E-03 
  49909.5615     0.13289E-03 
  49941.8237     0.12881E-03 
  49974.0858     0.12457E-03 
  50006.3480     0.12021E-03 
  50038.6102     0.11576E-03 
  50070.8723     0.11125E-03 
  50103.1345     0.10671E-03 
  50135.3966     0.10217E-03 
  50167.6588     0.97657E-04 
  50199.9210     0.93199E-04 
  50232.1831     0.88826E-04 
  50264.4453     0.84565E-04 
  50296.7074     0.80445E-04 
  50328.9696     0.76490E-04 
  50361.2318     0.72726E-04 
  50393.4939     0.69175E-04 
  50425.7561     0.65859E-04 
  50458.0182     0.62793E-04 
  50490.2804     0.59994E-04 
  50522.5426     0.57472E-04 
  50554.8047     0.55231E-04 
  50587.0669     0.53276E-04 
  50619.3290     0.51603E-04 
  50651.5912     0.50206E-04 
  50683.8534     0.49073E-04 
  50716.1155     0.48189E-04 
  50748.3777     0.47536E-04 
  50780.6398     0.47090E-04 
  50812.9020     0.46827E-04 
  50845.1642     0.46721E-04 
  50877.4263     0.46743E-04 
  50909.6885     0.46867E-04 
  50941.9506     0.47064E-04 
  50974.2128     0.47308E-04 
  51006.4750     0.47574E-04 
  51038.7371     0.47840E-04 
  51070.9993     0.48085E-04 
  51103.2614     0.48294E-04 
  51135.5236     0.48450E-04 
  51167.7858     0.48545E-04 
  51200.0479     0.48568E-04 
  51232.3101     0.48514E-04 
  51264.5722     0.48380E-04 
  51296.8344     0.48165E-04 
  51329.0966     0.47869E-04 
  51361.3587     0.47493E-04 
  51393.6209     0.47043E-04 
  51425.8830     0.46520E-04 
  51458.1452     0.45930E-04 
  51490.4074     0.45279E-04 
  51522.6695     0.44571E-04 
  51554.9317     0.43813E-04 
  51587.1938     0.43010E-04 
  51619.4560     0.42167E-04 
  51651.7182     0.41290E-04 
  51683.9803     0.40385E-04 
  51716.2425     0.39456E-04 
  51748.5046     0.38510E-04 
  51780.7668     0.37549E-04 
  51813.0290     0.36581E-04 
  51845.2911     0.35608E-04 
  51877.5533     0.34637E-04 
  51909.8154     0.33671E-04 
  51942.0776     0.32716E-04 
  51974.3398     0.31774E-04 
  52006.6019     0.30852E-04 
  52038.8641     0.29952E-04 
  52071.1262     0.29079E-04 
  52103.3884     0.28237E-04 
  52135.6506     0.27428E-04 
  52167.9127     0.26655E-04 
  52200.1749     0.25922E-04 
  52232.4370     0.25229E-04 
  52264.6992     0.24579E-04 
  52296.9614     0.23972E-04 
  52329.2235     0.23408E-04 
  52361.4857     0.22888E-04 
  52393.7478     0.22410E-04 
  52426.0100     0.21972E-04 
  52458.2722     0.21574E-04 
  52490.5343     0.21211E-04 
  52522.7965     0.20881E-04 
  52555.0586     0.20581E-04 
  52587.3208     0.20307E-04 
  52619.5830     0.20056E-04 
  52651.8451     0.19824E-04 
  52684.1073     0.19608E-04 
  52716.3694     0.19403E-04 
  52748.6316     0.19207E-04 
  52780.8938     0.19017E-04 
  52813.1559     0.18829E-04 
  52845.4181     0.18642E-04 
  52877.6802     0.18454E-04 
  52909.9424     0.18263E-04 
  52942.2046     0.18067E-04 
  52974.4667     0.17866E-04 
  53006.7289     0.17659E-04 
  53038.9910     0.17446E-04 
  53071.2532     0.17226E-04 
  53103.5154     0.17000E-04 
  53135.7775     0.16768E-04 
  53168.0397     0.16530E-04 
  53200.3018     0.16287E-04 
  53232.5640     0.16039E-04 
  53264.8262     0.15787E-04 
  53297.0883     0.15531E-04 
  53329.3505     0.15273E-04 
  53361.6126     0.15012E-04 
  53393.8748     0.14749E-04 
  53426.1370     0.14485E-04 
  53458.3991     0.14221E-04 
  53490.6613     0.13957E-04 
  53522.9234     0.13694E-04 
  53555.1856     0.13433E-04 
  53587.4478     0.13173E-04 
  53619.7099     0.12917E-04 
  53651.9721     0.12663E-04 
  53684.2342     0.12413E-04 
  53716.4964     0.12168E-04 
  53748.7586     0.11927E-04 
  53781.0207     0.11691E-04 
  53813.2829     0.11461E-04 
  53845.5450     0.11238E-04 
  53877.8072     0.11020E-04 
  53910.0694     0.10810E-04 
  53942.3315     0.10606E-04 
  53974.5937     0.10410E-04 
  54006.8558     0.10220E-04 
  54039.1180     0.10038E-04 
  54071.3802     0.98636E-05 
  54103.6423     0.96957E-05 
  54135.9045     0.95348E-05 
  54168.1666     0.93805E-05 
  54200.4288     0.92324E-05 
  54232.6910     0.90903E-05 
  54264.9531     0.89538E-05 
  54297.2153     0.88223E-05 
  54329.4774     0.86955E-05 
  54361.7396     0.85729E-05 
  54394.0018     0.84540E-05 
  54426.2639     0.83384E-05 
  54458.5261     0.82256E-05 
  54490.7882     0.81153E-05 
  54523.0504     0.80070E-05 
  54555.3126     0.79005E-05 
  54587.5747     0.77954E-05 
  54619.8369     0.76916E-05 
  54652.0990     0.75887E-05 
  54684.3612     0.74867E-05 
  54716.6234     0.73854E-05 
  54748.8855     0.72847E-05 
  54781.1477     0.71846E-05 
  54813.4098     0.70850E-05 
  54845.6720     0.69858E-05 
  54877.9342     0.68872E-05 
  54910.1963     0.67892E-05 
  54942.4585     0.66917E-05 
  54974.7206     0.65948E-05 
  55006.9828     0.64985E-05 
  55039.2450     0.64030E-05 
  55071.5071     0.63082E-05 
  55103.7693     0.62142E-05 
  55136.0314     0.61212E-05 
  55168.2936     0.60290E-05 
  55200.5558     0.59379E-05 
  55232.8179     0.58478E-05 
  55265.0801     0.57588E-05 
  55297.3422     0.56710E-05 
  55329.6044     0.55844E-05 
  55361.8666     0.54991E-05 
  55394.1287     0.54151E-05 
  55426.3909     0.53325E-05 
  55458.6530     0.52513E-05 
  55490.9152     0.51715E-05 
  55523.1774     0.50932E-05 
  55555.4395     0.50165E-05 
  55587.7017     0.49413E-05 
  55619.9638     0.48676E-05 
  55652.2260     0.47955E-05 
  55684.4882     0.47250E-05 
  55716.7503     0.46561E-05 
  55749.0125     0.45887E-05 
  55781.2746     0.45228E-05 
  55813.5368     0.44585E-05 
  55845.7990     0.43956E-05 
  55878.0611     0.43341E-05 
  55910.3233     0.42741E-05 
  55942.5854     0.42153E-05 
  55974.8476     0.41579E-05 
  56007.1098     0.41016E-05 
  56039.3719     0.40465E-05 
  56071.6341     0.39925E-05 
  56103.8962     0.39395E-05 
  56136.1584     0.38875E-05 
  56168.4206     0.38364E-05 
  56200.6827     0.37861E-05 
  56232.9449     0.37367E-05 
  56265.2070     0.36880E-05 
  56297.4692     0.36400E-05 
  56329.7314     0.35927E-05 
  56361.9935     0.35460E-05 
  56394.2557     0.34999E-05 
  56426.5178     0.34544E-05 
  56458.7800     0.34095E-05 
  56491.0422     0.33651E-05 
  56523.3043     0.33213E-05 
  56555.5665     0.32779E-05 
  56587.8286     0.32351E-05 
  56620.0908     0.31929E-05 
  56652.3530     0.31511E-05 
  56684.6151     0.31098E-05 
  56716.8773     0.30690E-05 
  56749.1394     0.30287E-05 
  56781.4016     0.29890E-05 
  56813.6638     0.29497E-05 
  56845.9259     0.29109E-05 
  56878.1881     0.28726E-05 
  56910.4502     0.28348E-05 
  56942.7124     0.27976E-05 
  56974.9746     0.27608E-05 
  57007.2367     0.27245E-05 
  57039.4989     0.26887E-05 
  57071.7610     0.26534E-05 
  57104.0232     0.26186E-05 
  57136.2854     0.25844E-05 
  57168.5475     0.25506E-05 
  57200.8097     0.25173E-05 
  57233.0718     0.24845E-05 
  57265.3340     0.24522E-05 
  57297.5962     0.24203E-05 
  57329.8583     0.23890E-05 
  57362.1205     0.23581E-05 
  57394.3826     0.23278E-05 
  57426.6448     0.22978E-05 
  57458.9070     0.22684E-05 
  57491.1691     0.22394E-05 
  57523.4313     0.22108E-05 
  57555.6934     0.21827E-05 
  57587.9556     0.21550E-05 
  57620.2178     0.21278E-05 
  57652.4799     0.21009E-05 
  57684.7421     0.20744E-05 
  57717.0042     0.20484E-05 
  57749.2664     0.20227E-05 
  57781.5286     0.19974E-05 
  57813.7907     0.19724E-05 
  57846.0529     0.19478E-05 
  57878.3150     0.19235E-05 
  57910.5772     0.18995E-05 
  57942.8394     0.18758E-05 
  57975.1015     0.18525E-05 
  58007.3637     0.18295E-05 
  58039.6258     0.18067E-05 
  58071.8880     0.17843E-05 
  58104.1502     0.17621E-05 
  58136.4123     0.17402E-05 
  58168.6745     0.17185E-05 
  58200.9366     0.16972E-05 
  58233.1988     0.16760E-05 
  58265.4610     0.16552E-05 
  58297.7231     0.16346E-05 
  58329.9853     0.16142E-05 
  58362.2474     0.15941E-05 
  58394.5096     0.15742E-05 
  58426.7718     0.15546E-05 
  58459.0339     0.15352E-05 
  58491.2961     0.15160E-05 
  58523.5582     0.14970E-05 
  58555.8204     0.14783E-05 
  58588.0826     0.14598E-05 
  58620.3447     0.14416E-05 
  58652.6069     0.14235E-05 
  58684.8690     0.14057E-05 
  58717.1312     0.13881E-05 
  58749.3934     0.13707E-05 
  58781.6555     0.13535E-05 
  58813.9177     0.13365E-05 
  58846.1798     0.13197E-05 
  58878.4420     0.13031E-05 
  58910.7042     0.12867E-05 
  58942.9663     0.12706E-05 
  58975.2285     0.12546E-05 
  59007.4906     0.12388E-05 
  59039.7528     0.12232E-05 
  59072.0150     0.12078E-05 
  59104.2771     0.11926E-05 
  59136.5393     0.11775E-05 
  59168.8014     0.11627E-05 
  59201.0636     0.11480E-05 
  59233.3258     0.11335E-05 
  59265.5879     0.11192E-05 
  59297.8501     0.11050E-05 
  59330.1122     0.10910E-05 
  59362.3744     0.10772E-05 
  59394.6366     0.10636E-05 
  59426.8987     0.10501E-05 
  59459.1609     0.10367E-05 
  59491.4230     0.10235E-05 
  59523.6852     0.10105E-05 
  59555.9474     0.99759E-06 
  59588.2095     0.98484E-06 
  59620.4717     0.97224E-06 
  59652.7338     0.95978E-06 
  59684.9960     0.94747E-06 
  59717.2582     0.93529E-06 
  59749.5203     0.92324E-06 
  59781.7825     0.91133E-06 
  59814.0446     0.89955E-06 
  59846.3068     0.88790E-06 
  59878.5690     0.87637E-06 
  59910.8311     0.86497E-06 
  59943.0933     0.85370E-06 
  59975.3554     0.84255E-06 
  60007.6176     0.83152E-06 
  60039.8798     0.82061E-06 
  60072.1419     0.80981E-06 
  60104.4041     0.79914E-06 
  60136.6662     0.78858E-06 
  60168.9284     0.77813E-06 
  60201.1906     0.76779E-06 
  60233.4527     0.75757E-06 
  60265.7149     0.74746E-06 
  60297.9770     0.73745E-06 
  60330.2392     0.72755E-06 
  60362.5014     0.71776E-06 
  60394.7635     0.70807E-06 
  60427.0257     0.69848E-06 
  60459.2878     0.68900E-06 
  60491.5500     0.67962E-06 
  60523.8122     0.67034E-06 
  60556.0743     0.66116E-06 
  60588.3365     0.65207E-06 
  60620.5986     0.64308E-06 
  60652.8608     0.63419E-06 
  60685.1230     0.62539E-06 
  60717.3851     0.61669E-06 
  60749.6473     0.60807E-06 
  60781.9094     0.59955E-06 
  60814.1716     0.59112E-06 
  60846.4338     0.58278E-06 
  60878.6959     0.57452E-06 
  60910.9581     0.56636E-06 
  60943.2202     0.55827E-06 
  60975.4824     0.55028E-06 
  61007.7446     0.54237E-06 
  61040.0067     0.53454E-06 
  61072.2689     0.52679E-06 
  61104.5310     0.51912E-06 
  61136.7932     0.51154E-06 
  61169.0554     0.50403E-06 
  61201.3175     0.49660E-06 
  61233.5797     0.48925E-06 
  61265.8418     0.48198E-06 
  61298.1040     0.47478E-06 
  61330.3662     0.46766E-06 
  61362.6283     0.46061E-06 
  61394.8905     0.45364E-06 
  61427.1526     0.44673E-06 
  61459.4148     0.43990E-06 
  61491.6770     0.43314E-06 
  61523.9391     0.42645E-06 
  61556.2013     0.41983E-06 
  61588.4634     0.41328E-06 
  61620.7256     0.40680E-06 
  61652.9878     0.40039E-06 
  61685.2499     0.39404E-06 
  61717.5121     0.38776E-06 
  61749.7742     0.38154E-06 
  61782.0364     0.37539E-06 
  61814.2986     0.36930E-06 
  61846.5607     0.36328E-06 
  61878.8229     0.35732E-06 
  61911.0850     0.35142E-06 
  61943.3472     0.34559E-06 
  61975.6094     0.33982E-06 
  62007.8715     0.33411E-06 
  62040.1337     0.32845E-06 
  62072.3958     0.32286E-06 
  62104.6580     0.31733E-06 
  62136.9202     0.31186E-06 
  62169.1823     0.30644E-06 
  62201.4445     0.30109E-06 
  62233.7066     0.29579E-06 
  62265.9688     0.29055E-06 
  62298.2310     0.28536E-06 
  62330.4931     0.28023E-06 
  62362.7553     0.27516E-06 
  62395.0174     0.27014E-06 
  62427.2796     0.26518E-06 
  62459.5418     0.26027E-06 
  62491.8039     0.25541E-06 
  62524.0661     0.25061E-06 
  62556.3282     0.24587E-06 
  62588.5904     0.24117E-06 
  62620.8526     0.23653E-06 
  62653.1147     0.23194E-06 
  62685.3769     0.22740E-06 
  62717.6390     0.22291E-06 
  62749.9012     0.21848E-06 
  62782.1634     0.21409E-06 
  62814.4255     0.20976E-06 
  62846.6877     0.20547E-06 
  62878.9498     0.20124E-06 
  62911.2120     0.19705E-06 
  62943.4742     0.19291E-06 
  62975.7363     0.18882E-06 
  63007.9985     0.18479E-06 
  63040.2606     0.18079E-06 
  63072.5228     0.17685E-06 
  63104.7850     0.17296E-06 
  63137.0471     0.16911E-06 
  63169.3093     0.16531E-06 
  63201.5714     0.16155E-06 
  63233.8336     0.15784E-06 
  63266.0958     0.15418E-06 
  63298.3579     0.15057E-06 
  63330.6201     0.14700E-06 
  63362.8822     0.14348E-06 
  63395.1444     0.14000E-06 
  63427.4066     0.13657E-06 
  63459.6687     0.13318E-06 
  63491.9309     0.12984E-06 
  63524.1930     0.12654E-06 
  63556.4552     0.12329E-06 
  63588.7174     0.12009E-06 
  63620.9795     0.11692E-06 
  63653.2417     0.11380E-06 
  63685.5038     0.11073E-06 
  63717.7660     0.10770E-06 
  63750.0282     0.10471E-06 
  63782.2903     0.10177E-06 
  63814.5525     0.98867E-07 
  63846.8146     0.96011E-07 
  63879.0768     0.93197E-07 
  63911.3390     0.90427E-07 
  63943.6011     0.87700E-07 
  63975.8633     0.85016E-07 
  64008.1254     0.82375E-07 
  64040.3876     0.79777E-07 
  64072.6498     0.77221E-07 
  64104.9119     0.74708E-07 
  64137.1741     0.72238E-07 
  64169.4362     0.69810E-07 
  64201.6984     0.67425E-07 
  64233.9606     0.65082E-07 
  64266.2227     0.62781E-07 
  64298.4849     0.60523E-07 
  64330.7470     0.58307E-07 
  64363.0092     0.56134E-07 
  64395.2714     0.54002E-07 
  64427.5335     0.51913E-07 
  64459.7957     0.49866E-07 
  64492.0578     0.47862E-07 
  64524.3200     0.45899E-07 
  64556.5822     0.43979E-07 
  64588.8443     0.42101E-07 
  64621.1065     0.40266E-07 
  64653.3686     0.38472E-07 
  64685.6308     0.36721E-07 
  64717.8930     0.35013E-07 
  64750.1551     0.33347E-07 
  64782.4173     0.31723E-07 
  64814.6794     0.30141E-07 
  64846.9416     0.28603E-07 
  64879.2038     0.27107E-07 
  64911.4659     0.25653E-07 
  64943.7281     0.24243E-07 
  64975.9902     0.22875E-07 
  65008.2524     0.21550E-07 
  65040.5146     0.20268E-07 
  65072.7767     0.19030E-07 
  65105.0389     0.17834E-07 
  65137.3010     0.16682E-07 
  65169.5632     0.15574E-07 
  65201.8254     0.14509E-07 
  65234.0875     0.13487E-07 
  65266.3497     0.12510E-07 
  65298.6118     0.11576E-07 
  65330.8740     0.10687E-07 
  65363.1362     0.98419E-08 
  65395.3983     0.90414E-08 
  65427.6605     0.82854E-08 
  65459.9226     0.75742E-08 
  65492.1848     0.69080E-08 
  65524.4470     0.62869E-08 
  65556.7091     0.57111E-08 
  65588.9713     0.51809E-08 
  65621.2334     0.46964E-08 
  65653.4956     0.42578E-08 
  65685.7578     0.38654E-08 
  65718.0199     0.35194E-08 
  65750.2821     0.32200E-08 
  65782.5442     0.29674E-08 
  65814.8064     0.27619E-08 
  65847.0686     0.26038E-08 
  65879.3307     0.24932E-08 
  65911.5929     0.24305E-08 
  65943.8550     0.24158E-08 
  65976.1172     0.24496E-08 
  66008.3794     0.25321E-08 
  66040.6415     0.26634E-08 
  66072.9037     0.28441E-08 
  66105.1658     0.30743E-08 
  66137.4280     0.33544E-08 
  66169.6902     0.36847E-08 
  66201.9523     0.40654E-08 
  66234.2145     0.44971E-08 
  66266.4766     0.49799E-08 
  66298.7388     0.55142E-08 
  66331.0010     0.61005E-08 
  66363.2631     0.67389E-08 
  66395.5253     0.74300E-08 
  66427.7874     0.81742E-08 
  66460.0496     0.89716E-08 
  66492.3118     0.98229E-08 
  66524.5739     0.10728E-07 
  66556.8361     0.11688E-07 
  66589.0982     0.12703E-07 
  66621.3604     0.13774E-07 
  66653.6226     0.14900E-07 
  66685.8847     0.16083E-07 
  66718.1469     0.17322E-07 
  66750.4090     0.18619E-07 
  66782.6712     0.19974E-07 
  66814.9334     0.21386E-07 
  66847.1955     0.22857E-07 
  66879.4577     0.24388E-07 
  66911.7198     0.25978E-07 
  66943.9820     0.27628E-07 
  66976.2442     0.29339E-07 
  67008.5063     0.31111E-07 
  67040.7685     0.32945E-07 
  67073.0306     0.34842E-07 
  67105.2928     0.36801E-07 
  67137.5550     0.38824E-07 
  67169.8171     0.40911E-07 
  67202.0793     0.43062E-07 
  67234.3414     0.45279E-07 
  67266.6036     0.47562E-07 
  67298.8658     0.49911E-07 
  67331.1279     0.52327E-07 
  67363.3901     0.54811E-07 
  67395.6522     0.57364E-07 
  67427.9144     0.59986E-07 
  67460.1766     0.62677E-07 
  67492.4387     0.65439E-07 
  67524.7009     0.68272E-07 
  67556.9630     0.71178E-07 
  67589.2252     0.74155E-07 
  67621.4874     0.77207E-07 
  67653.7495     0.80332E-07 
  67686.0117     0.83532E-07 
  67718.2738     0.86808E-07 
  67750.5360     0.90161E-07 
  67782.7982     0.93590E-07 
  67815.0603     0.97098E-07 
  67847.3225     0.10069E-06 
  67879.5846     0.10435E-06 
  67911.8468     0.10810E-06 
  67944.1090     0.11193E-06 
  67976.3711     0.11584E-06 
  68008.6333     0.11983E-06 
  68040.8954     0.12391E-06 
  68073.1576     0.12808E-06 
  68105.4198     0.13233E-06 
  68137.6819     0.13666E-06 
  68169.9441     0.14109E-06 
  68202.2062     0.14560E-06 
  68234.4684     0.15021E-06 
  68266.7306     0.15490E-06 
  68298.9927     0.15969E-06 
  68331.2549     0.16457E-06 
  68363.5170     0.16954E-06 
  68395.7792     0.17461E-06 
  68428.0414     0.17978E-06 
  68460.3035     0.18504E-06 
  68492.5657     0.19040E-06 
  68524.8278     0.19587E-06 
  68557.0900     0.20143E-06 
  68589.3522     0.20710E-06 
  68621.6143     0.21287E-06 
  68653.8765     0.21874E-06 
  68686.1386     0.22472E-06 
  68718.4008     0.23081E-06 
  68750.6630     0.23700E-06 
  68782.9251     0.24331E-06 
  68815.1873     0.24972E-06 
  68847.4494     0.25625E-06 
  68879.7116     0.26289E-06 
  68911.9738     0.26965E-06 
  68944.2359     0.27653E-06 
  68976.4981     0.28352E-06 
  69008.7602     0.29063E-06 
  69041.0224     0.29787E-06 
  69073.2846     0.30522E-06 
  69105.5467     0.31271E-06 
  69137.8089     0.32031E-06 
  69170.0710     0.32805E-06 
  69202.3332     0.33591E-06 
  69234.5954     0.34390E-06 
  69266.8575     0.35203E-06 
  69299.1197     0.36029E-06 
  69331.3818     0.36868E-06 
  69363.6440     0.37722E-06 
  69395.9062     0.38589E-06 
  69428.1683     0.39470E-06 
  69460.4305     0.40366E-06 
  69492.6926     0.41276E-06 
  69524.9548     0.42201E-06 
  69557.2170     0.43140E-06 
  69589.4791     0.44095E-06 
  69621.7413     0.45065E-06 
  69654.0034     0.46050E-06 
  69686.2656     0.47051E-06 
  69718.5278     0.48068E-06 
  69750.7899     0.49101E-06 
  69783.0521     0.50150E-06 
  69815.3142     0.51216E-06 
  69847.5764     0.52298E-06 
  69879.8386     0.53398E-06 
  69912.1007     0.54514E-06 
  69944.3629     0.55648E-06 
  69976.6250     0.56800E-06 
  70008.8872     0.57969E-06 
  70041.1494     0.59157E-06 
  70073.4115     0.60363E-06 
  70105.6737     0.61588E-06 
  70137.9358     0.62831E-06 
  70170.1980     0.64094E-06 
  70202.4602     0.65376E-06 
  70234.7223     0.66678E-06 
  70266.9845     0.68000E-06 
  70299.2466     0.69342E-06 
  70331.5088     0.70704E-06 
  70363.7710     0.72087E-06 
  70396.0331     0.73492E-06 
  70428.2953     0.74917E-06 
  70460.5574     0.76365E-06 
  70492.8196     0.77834E-06 
  70525.0818     0.79326E-06 
  70557.3439     0.80840E-06 
  70589.6061     0.82378E-06 
  70621.8682     0.83938E-06 
  70654.1304     0.85522E-06 
  70686.3926     0.87130E-06 
  70718.6547     0.88763E-06 
  70750.9169     0.90420E-06 
  70783.1790     0.92102E-06 
  70815.4412     0.93809E-06 
  70847.7034     0.95542E-06 
  70879.9655     0.97301E-06 
  70912.2277     0.99086E-06 
  70944.4898     0.10090E-05 
  70976.7520     0.10274E-05 
  71009.0142     0.10461E-05 
  71041.2763     0.10650E-05 
  71073.5385     0.10842E-05 
  71105.8006     0.11038E-05 
  71138.0628     0.11236E-05 
  71170.3250     0.11437E-05 
  71202.5871     0.11641E-05 
  71234.8493     0.11848E-05 
  71267.1114     0.12059E-05 
  71299.3736     0.12272E-05 
  71331.6358     0.12489E-05 
  71363.8979     0.12709E-05 
  71396.1601     0.12932E-05 
  71428.4222     0.13159E-05 
  71460.6844     0.13389E-05 
  71492.9466     0.13622E-05 
  71525.2087     0.13859E-05 
  71557.4709     0.14099E-05 
  71589.7330     0.14343E-05 
  71621.9952     0.14591E-05 
  71654.2574     0.14843E-05 
  71686.5195     0.15098E-05 
  71718.7817     0.15357E-05 
  71751.0438     0.15620E-05 
  71783.3060     0.15887E-05 
  71815.5682     0.16158E-05 
  71847.8303     0.16433E-05 
  71880.0925     0.16712E-05 
  71912.3546     0.16995E-05 
  71944.6168     0.17283E-05 
  71976.8790     0.17574E-05 
  72009.1411     0.17871E-05 
  72041.4033     0.18172E-05 
  72073.6654     0.18477E-05 
  72105.9276     0.18787E-05 
  72138.1898     0.19101E-05 
  72170.4519     0.19421E-05 
  72202.7141     0.19745E-05 
  72234.9762     0.20074E-05 
  72267.2384     0.20408E-05 
  72299.5006     0.20747E-05 
  72331.7627     0.21091E-05 
  72364.0249     0.21441E-05 
  72396.2870     0.21796E-05 
  72428.5492     0.22156E-05 
  72460.8114     0.22522E-05 
  72493.0735     0.22893E-05 
  72525.3357     0.23270E-05 
  72557.5978     0.23652E-05 
  72589.8600     0.24041E-05 
