  32262.1600     0.44524E+03 
  32294.4222     0.44734E+03 
  32326.6843     0.44946E+03 
  32358.9465     0.45160E+03 
  32391.2086     0.45376E+03 
  32423.4708     0.45594E+03 
  32455.7330     0.45814E+03 
  32487.9951     0.46037E+03 
  32520.2573     0.46261E+03 
  32552.5194     0.46487E+03 
  32584.7816     0.46715E+03 
  32617.0438     0.46946E+03 
  32649.3059     0.47179E+03 
  32681.5681     0.47413E+03 
  32713.8302     0.47650E+03 
  32746.0924     0.47889E+03 
  32778.3546     0.48131E+03 
  32810.6167     0.48374E+03 
  32842.8789     0.48620E+03 
  32875.1410     0.48868E+03 
  32907.4032     0.49119E+03 
  32939.6654     0.49371E+03 
  32971.9275     0.49626E+03 
  33004.1897     0.49883E+03 
  33036.4518     0.50143E+03 
  33068.7140     0.50405E+03 
  33100.9762     0.50669E+03 
  33133.2383     0.50936E+03 
  33165.5005     0.51205E+03 
  33197.7626     0.51477E+03 
  33230.0248     0.51751E+03 
  33262.2870     0.52027E+03 
  33294.5491     0.52306E+03 
  33326.8113     0.52588E+03 
  33359.0734     0.52872E+03 
  33391.3356     0.53159E+03 
  33423.5978     0.53448E+03 
  33455.8599     0.53740E+03 
  33488.1221     0.54034E+03 
  33520.3842     0.54331E+03 
  33552.6464     0.54631E+03 
  33584.9086     0.54933E+03 
  33617.1707     0.55238E+03 
  33649.4329     0.55546E+03 
  33681.6950     0.55857E+03 
  33713.9572     0.56171E+03 
  33746.2194     0.56487E+03 
  33778.4815     0.56806E+03 
  33810.7437     0.57128E+03 
  33843.0058     0.57453E+03 
  33875.2680     0.57781E+03 
  33907.5302     0.58111E+03 
  33939.7923     0.58445E+03 
  33972.0545     0.58782E+03 
  34004.3166     0.59122E+03 
  34036.5788     0.59464E+03 
  34068.8410     0.59810E+03 
  34101.1031     0.60159E+03 
  34133.3653     0.60511E+03 
  34165.6274     0.60867E+03 
  34197.8896     0.61225E+03 
  34230.1518     0.61587E+03 
  34262.4139     0.61952E+03 
  34294.6761     0.62320E+03 
  34326.9382     0.62691E+03 
  34359.2004     0.63066E+03 
  34391.4626     0.63445E+03 
  34423.7247     0.63826E+03 
  34455.9869     0.64211E+03 
  34488.2490     0.64600E+03 
  34520.5112     0.64992E+03 
  34552.7734     0.65388E+03 
  34585.0355     0.65787E+03 
  34617.2977     0.66190E+03 
  34649.5598     0.66596E+03 
  34681.8220     0.67007E+03 
  34714.0842     0.67421E+03 
  34746.3463     0.67838E+03 
  34778.6085     0.68260E+03 
  34810.8706     0.68685E+03 
  34843.1328     0.69114E+03 
  34875.3950     0.69547E+03 
  34907.6571     0.69984E+03 
  34939.9193     0.70425E+03 
  34972.1814     0.70870E+03 
  35004.4436     0.71319E+03 
  35036.7058     0.71773E+03 
  35068.9679     0.72230E+03 
  35101.2301     0.72692E+03 
  35133.4922     0.73157E+03 
  35165.7544     0.73627E+03 
  35198.0166     0.74102E+03 
  35230.2787     0.74580E+03 
  35262.5409     0.75064E+03 
  35294.8030     0.75551E+03 
  35327.0652     0.76043E+03 
  35359.3274     0.76540E+03 
  35391.5895     0.77041E+03 
  35423.8517     0.77547E+03 
  35456.1138     0.78058E+03 
  35488.3760     0.78573E+03 
  35520.6382     0.79093E+03 
  35552.9003     0.79618E+03 
  35585.1625     0.80148E+03 
  35617.4246     0.80683E+03 
  35649.6868     0.81223E+03 
  35681.9490     0.81768E+03 
  35714.2111     0.82318E+03 
  35746.4733     0.82873E+03 
  35778.7354     0.83433E+03 
  35810.9976     0.83999E+03 
  35843.2598     0.84569E+03 
  35875.5219     0.85146E+03 
  35907.7841     0.85728E+03 
  35940.0462     0.86315E+03 
  35972.3084     0.86908E+03 
  36004.5706     0.87506E+03 
  36036.8327     0.88110E+03 
  36069.0949     0.88720E+03 
  36101.3570     0.89336E+03 
  36133.6192     0.89957E+03 
  36165.8814     0.90585E+03 
  36198.1435     0.91218E+03 
  36230.4057     0.91858E+03 
  36262.6678     0.92504E+03 
  36294.9300     0.93155E+03 
  36327.1922     0.93814E+03 
  36359.4543     0.94478E+03 
  36391.7165     0.95149E+03 
  36423.9786     0.95827E+03 
  36456.2408     0.96511E+03 
  36488.5030     0.97201E+03 
  36520.7651     0.97899E+03 
  36553.0273     0.98603E+03 
  36585.2894     0.99314E+03 
  36617.5516     0.10003E+04 
  36649.8138     0.10076E+04 
  36682.0759     0.10149E+04 
  36714.3381     0.10223E+04 
  36746.6002     0.10297E+04 
  36778.8624     0.10373E+04 
  36811.1246     0.10449E+04 
  36843.3867     0.10526E+04 
  36875.6489     0.10604E+04 
  36907.9110     0.10682E+04 
  36940.1732     0.10761E+04 
  36972.4354     0.10841E+04 
  37004.6975     0.10922E+04 
  37036.9597     0.11004E+04 
  37069.2218     0.11086E+04 
  37101.4840     0.11169E+04 
  37133.7462     0.11253E+04 
  37166.0083     0.11338E+04 
  37198.2705     0.11424E+04 
  37230.5326     0.11511E+04 
  37262.7948     0.11598E+04 
  37295.0570     0.11686E+04 
  37327.3191     0.11776E+04 
  37359.5813     0.11866E+04 
  37391.8434     0.11957E+04 
  37424.1056     0.12049E+04 
  37456.3678     0.12142E+04 
  37488.6299     0.12236E+04 
  37520.8921     0.12331E+04 
  37553.1542     0.12427E+04 
  37585.4164     0.12524E+04 
  37617.6786     0.12622E+04 
  37649.9407     0.12721E+04 
  37682.2029     0.12821E+04 
  37714.4650     0.12922E+04 
  37746.7272     0.13024E+04 
  37778.9894     0.13127E+04 
  37811.2515     0.13231E+04 
  37843.5137     0.13336E+04 
  37875.7758     0.13443E+04 
  37908.0380     0.13550E+04 
  37940.3002     0.13659E+04 
  37972.5623     0.13769E+04 
  38004.8245     0.13879E+04 
  38037.0866     0.13992E+04 
  38069.3488     0.14105E+04 
  38101.6110     0.14219E+04 
  38133.8731     0.14335E+04 
  38166.1353     0.14452E+04 
  38198.3974     0.14570E+04 
  38230.6596     0.14690E+04 
  38262.9218     0.14811E+04 
  38295.1839     0.14933E+04 
  38327.4461     0.15056E+04 
  38359.7082     0.15181E+04 
  38391.9704     0.15307E+04 
  38424.2326     0.15435E+04 
  38456.4947     0.15564E+04 
  38488.7569     0.15694E+04 
  38521.0190     0.15826E+04 
  38553.2812     0.15959E+04 
  38585.5434     0.16094E+04 
  38617.8055     0.16230E+04 
  38650.0677     0.16368E+04 
  38682.3298     0.16507E+04 
  38714.5920     0.16647E+04 
  38746.8542     0.16790E+04 
  38779.1163     0.16934E+04 
  38811.3785     0.17079E+04 
  38843.6406     0.17226E+04 
  38875.9028     0.17375E+04 
  38908.1650     0.17526E+04 
  38940.4271     0.17678E+04 
  38972.6893     0.17832E+04 
  39004.9514     0.17988E+04 
  39037.2136     0.18145E+04 
  39069.4758     0.18304E+04 
  39101.7379     0.18465E+04 
  39134.0001     0.18628E+04 
  39166.2622     0.18793E+04 
  39198.5244     0.18960E+04 
  39230.7866     0.19129E+04 
  39263.0487     0.19299E+04 
  39295.3109     0.19472E+04 
  39327.5730     0.19646E+04 
  39359.8352     0.19823E+04 
  39392.0974     0.20002E+04 
  39424.3595     0.20182E+04 
  39456.6217     0.20365E+04 
  39488.8838     0.20551E+04 
  39521.1460     0.20738E+04 
  39553.4082     0.20927E+04 
  39585.6703     0.21119E+04 
  39617.9325     0.21313E+04 
  39650.1946     0.21510E+04 
  39682.4568     0.21708E+04 
  39714.7190     0.21909E+04 
  39746.9811     0.22113E+04 
  39779.2433     0.22319E+04 
  39811.5054     0.22528E+04 
  39843.7676     0.22739E+04 
  39876.0298     0.22952E+04 
  39908.2919     0.23168E+04 
  39940.5541     0.23387E+04 
  39972.8162     0.23609E+04 
  40005.0784     0.23833E+04 
  40037.3406     0.24060E+04 
  40069.6027     0.24290E+04 
  40101.8649     0.24523E+04 
  40134.1270     0.24759E+04 
  40166.3892     0.24997E+04 
  40198.6514     0.25239E+04 
  40230.9135     0.25483E+04 
  40263.1757     0.25731E+04 
  40295.4378     0.25982E+04 
  40327.7000     0.26236E+04 
  40359.9622     0.26493E+04 
  40392.2243     0.26754E+04 
  40424.4865     0.27018E+04 
  40456.7486     0.27285E+04 
  40489.0108     0.27556E+04 
  40521.2730     0.27830E+04 
  40553.5351     0.28107E+04 
  40585.7973     0.28389E+04 
  40618.0594     0.28674E+04 
  40650.3216     0.28962E+04 
  40682.5838     0.29255E+04 
  40714.8459     0.29551E+04 
  40747.1081     0.29852E+04 
  40779.3702     0.30156E+04 
  40811.6324     0.30464E+04 
  40843.8946     0.30776E+04 
  40876.1567     0.31093E+04 
  40908.4189     0.31413E+04 
  40940.6810     0.31739E+04 
  40972.9432     0.32068E+04 
  41005.2054     0.32402E+04 
  41037.4675     0.32740E+04 
  41069.7297     0.33083E+04 
  41101.9918     0.33431E+04 
  41134.2540     0.33783E+04 
  41166.5162     0.34140E+04 
  41198.7783     0.34502E+04 
  41231.0405     0.34870E+04 
  41263.3026     0.35242E+04 
  41295.5648     0.35619E+04 
  41327.8270     0.36002E+04 
  41360.0891     0.36390E+04 
  41392.3513     0.36783E+04 
  41424.6134     0.37182E+04 
  41456.8756     0.37587E+04 
  41489.1378     0.37997E+04 
  41521.3999     0.38414E+04 
  41553.6621     0.38836E+04 
  41585.9242     0.39264E+04 
  41618.1864     0.39698E+04 
  41650.4486     0.40139E+04 
  41682.7107     0.40586E+04 
  41714.9729     0.41039E+04 
  41747.2350     0.41499E+04 
  41779.4972     0.41966E+04 
  41811.7594     0.42440E+04 
  41844.0215     0.42920E+04 
  41876.2837     0.43408E+04 
  41908.5458     0.43903E+04 
  41940.8080     0.44405E+04 
  41973.0702     0.44915E+04 
  42005.3323     0.45432E+04 
  42037.5945     0.45958E+04 
  42069.8566     0.46491E+04 
  42102.1188     0.47032E+04 
  42134.3810     0.47582E+04 
  42166.6431     0.48139E+04 
  42198.9053     0.48706E+04 
  42231.1674     0.49281E+04 
  42263.4296     0.49865E+04 
  42295.6918     0.50458E+04 
  42327.9539     0.51060E+04 
  42360.2161     0.51672E+04 
  42392.4782     0.52293E+04 
  42424.7404     0.52924E+04 
  42457.0026     0.53565E+04 
  42489.2647     0.54216E+04 
  42521.5269     0.54877E+04 
  42553.7890     0.55549E+04 
  42586.0512     0.56232E+04 
  42618.3134     0.56926E+04 
  42650.5755     0.57631E+04 
  42682.8377     0.58348E+04 
  42715.0998     0.59076E+04 
  42747.3620     0.59816E+04 
  42779.6242     0.60568E+04 
  42811.8863     0.61333E+04 
  42844.1485     0.62110E+04 
  42876.4106     0.62900E+04 
  42908.6728     0.63704E+04 
  42940.9350     0.64521E+04 
  42973.1971     0.65352E+04 
  43005.4593     0.66196E+04 
  43037.7214     0.67056E+04 
  43069.9836     0.67929E+04 
  43102.2458     0.68818E+04 
  43134.5079     0.69722E+04 
  43166.7701     0.70642E+04 
  43199.0322     0.71577E+04 
  43231.2944     0.72529E+04 
  43263.5566     0.73498E+04 
  43295.8187     0.74484E+04 
  43328.0809     0.75487E+04 
  43360.3430     0.76508E+04 
  43392.6052     0.77547E+04 
  43424.8674     0.78605E+04 
  43457.1295     0.79682E+04 
  43489.3917     0.80778E+04 
  43521.6538     0.81894E+04 
  43553.9160     0.83031E+04 
  43586.1782     0.84188E+04 
  43618.4403     0.85367E+04 
  43650.7025     0.86568E+04 
  43682.9646     0.87791E+04 
  43715.2268     0.89037E+04 
  43747.4890     0.90306E+04 
  43779.7511     0.91599E+04 
  43812.0133     0.92917E+04 
  43844.2754     0.94260E+04 
  43876.5376     0.95629E+04 
  43908.7998     0.97024E+04 
  43941.0619     0.98446E+04 
  43973.3241     0.99895E+04 
  44005.5862     0.10137E+05 
  44037.8484     0.10288E+05 
  44070.1106     0.10442E+05 
  44102.3727     0.10598E+05 
  44134.6349     0.10758E+05 
  44166.8970     0.10921E+05 
  44199.1592     0.11088E+05 
  44231.4214     0.11258E+05 
  44263.6835     0.11431E+05 
  44295.9457     0.11608E+05 
  44328.2078     0.11788E+05 
  44360.4700     0.11972E+05 
  44392.7322     0.12160E+05 
  44424.9943     0.12352E+05 
  44457.2565     0.12548E+05 
  44489.5186     0.12748E+05 
  44521.7808     0.12953E+05 
  44554.0430     0.13162E+05 
  44586.3051     0.13375E+05 
  44618.5673     0.13593E+05 
  44650.8294     0.13816E+05 
  44683.0916     0.14043E+05 
  44715.3538     0.14276E+05 
  44747.6159     0.14514E+05 
  44779.8781     0.14757E+05 
  44812.1402     0.15006E+05 
  44844.4024     0.15260E+05 
  44876.6646     0.15520E+05 
  44908.9267     0.15787E+05 
  44941.1889     0.16059E+05 
  44973.4510     0.16337E+05 
  45005.7132     0.16623E+05 
  45037.9754     0.16914E+05 
  45070.2375     0.17213E+05 
  45102.4997     0.17519E+05 
  45134.7618     0.17833E+05 
  45167.0240     0.18153E+05 
  45199.2862     0.18482E+05 
  45231.5483     0.18819E+05 
  45263.8105     0.19164E+05 
  45296.0726     0.19518E+05 
  45328.3348     0.19880E+05 
  45360.5970     0.20252E+05 
  45392.8591     0.20633E+05 
  45425.1213     0.21025E+05 
  45457.3834     0.21426E+05 
  45489.6456     0.21837E+05 
  45521.9078     0.22260E+05 
  45554.1699     0.22693E+05 
  45586.4321     0.23138E+05 
  45618.6942     0.23595E+05 
  45650.9564     0.24065E+05 
  45683.2186     0.24547E+05 
  45715.4807     0.25043E+05 
  45747.7429     0.25552E+05 
  45780.0050     0.26076E+05 
  45812.2672     0.26614E+05 
  45844.5294     0.27168E+05 
  45876.7915     0.27737E+05 
  45909.0537     0.28323E+05 
  45941.3158     0.28927E+05 
  45973.5780     0.29548E+05 
  46005.8402     0.30187E+05 
  46038.1023     0.30846E+05 
  46070.3645     0.31524E+05 
  46102.6266     0.32224E+05 
  46134.8888     0.32945E+05 
  46167.1510     0.33688E+05 
  46199.4131     0.34455E+05 
  46231.6753     0.35246E+05 
  46263.9374     0.36063E+05 
  46296.1996     0.36906E+05 
  46328.4618     0.37776E+05 
  46360.7239     0.38676E+05 
  46392.9861     0.39606E+05 
  46425.2482     0.40567E+05 
  46457.5104     0.41561E+05 
  46489.7726     0.42589E+05 
  46522.0347     0.43653E+05 
  46554.2969     0.44755E+05 
  46586.5590     0.45896E+05 
  46618.8212     0.47079E+05 
  46651.0834     0.48305E+05 
  46683.3455     0.49576E+05 
  46715.6077     0.50895E+05 
  46747.8698     0.52264E+05 
  46780.1320     0.53686E+05 
  46812.3942     0.55163E+05 
  46844.6563     0.56699E+05 
  46876.9185     0.58296E+05 
  46909.1806     0.59957E+05 
  46941.4428     0.61687E+05 
  46973.7050     0.63490E+05 
  47005.9671     0.65368E+05 
  47038.2293     0.67327E+05 
  47070.4914     0.69371E+05 
  47102.7536     0.71505E+05 
  47135.0158     0.73736E+05 
  47167.2779     0.76068E+05 
  47199.5401     0.78507E+05 
  47231.8022     0.81062E+05 
  47264.0644     0.83739E+05 
  47296.3266     0.86546E+05 
  47328.5887     0.89492E+05 
  47360.8509     0.92586E+05 
  47393.1130     0.95839E+05 
  47425.3752     0.99261E+05 
  47457.6374     0.10287E+06 
  47489.8995     0.10666E+06 
  47522.1617     0.11067E+06 
  47554.4238     0.11491E+06 
  47586.6860     0.11938E+06 
  47618.9482     0.12412E+06 
  47651.2103     0.12915E+06 
  47683.4725     0.13447E+06 
  47715.7346     0.14014E+06 
  47747.9968     0.14616E+06 
  47780.2590     0.15257E+06 
  47812.5211     0.15940E+06 
  47844.7833     0.16670E+06 
  47877.0454     0.17451E+06 
  47909.3076     0.18286E+06 
  47941.5698     0.19182E+06 
  47973.8319     0.20145E+06 
  48006.0941     0.21179E+06 
  48038.3562     0.22292E+06 
  48070.6184     0.23492E+06 
  48102.8806     0.24787E+06 
  48135.1427     0.26184E+06 
  48167.4049     0.27693E+06 
  48199.6670     0.29324E+06 
  48231.9292     0.31083E+06 
  48264.1914     0.32980E+06 
  48296.4535     0.35018E+06 
  48328.7157     0.37200E+06 
  48360.9778     0.39521E+06 
  48393.2400     0.41966E+06 
  48425.5022     0.44511E+06 
  48457.7643     0.47109E+06 
  48490.0265     0.49697E+06 
  48522.2886     0.52185E+06 
  48554.5508     0.54461E+06 
  48586.8130     0.56399E+06 
  48619.0751     0.57877E+06 
  48651.3373     0.58800E+06 
  48683.5994     0.59130E+06 
  48715.8616     0.58907E+06 
  48748.1238     0.58249E+06 
  48780.3859     0.57331E+06 
  48812.6481     0.56349E+06 
  48844.9102     0.55480E+06 
  48877.1724     0.54841E+06 
  48909.4346     0.54480E+06 
  48941.6967     0.54374E+06 
  48973.9589     0.54435E+06 
  49006.2210     0.54540E+06 
  49038.4832     0.54556E+06 
  49070.7454     0.54368E+06 
  49103.0075     0.53911E+06 
  49135.2697     0.53181E+06 
  49167.5318     0.52235E+06 
  49199.7940     0.51169E+06 
  49232.0562     0.50093E+06 
  49264.3183     0.49102E+06 
  49296.5805     0.48261E+06 
  49328.8426     0.47600E+06 
  49361.1048     0.47117E+06 
  49393.3670     0.46782E+06 
  49425.6291     0.46553E+06 
  49457.8913     0.46380E+06 
  49490.1534     0.46221E+06 
  49522.4156     0.46054E+06 
  49554.6778     0.45878E+06 
  49586.9399     0.45716E+06 
  49619.2021     0.45602E+06 
  49651.4642     0.45574E+06 
  49683.7264     0.45657E+06 
  49715.9886     0.45868E+06 
  49748.2507     0.46210E+06 
  49780.5129     0.46675E+06 
  49812.7750     0.47251E+06 
  49845.0372     0.47918E+06 
  49877.2994     0.48658E+06 
  49909.5615     0.49459E+06 
  49941.8237     0.50324E+06 
  49974.0858     0.51269E+06 
  50006.3480     0.52318E+06 
  50038.6102     0.53494E+06 
  50070.8723     0.54803E+06 
  50103.1345     0.56237E+06 
  50135.3966     0.57768E+06 
  50167.6588     0.59356E+06 
  50199.9210     0.60960E+06 
  50232.1831     0.62546E+06 
  50264.4453     0.64095E+06 
  50296.7074     0.65605E+06 
  50328.9696     0.67086E+06 
  50361.2318     0.68548E+06 
  50393.4939     0.69986E+06 
  50425.7561     0.71366E+06 
  50458.0182     0.72627E+06 
  50490.2804     0.73694E+06 
  50522.5426     0.74493E+06 
  50554.8047     0.74979E+06 
  50587.0669     0.75147E+06 
  50619.3290     0.75035E+06 
  50651.5912     0.74715E+06 
  50683.8534     0.74276E+06 
  50716.1155     0.73805E+06 
  50748.3777     0.73375E+06 
  50780.6398     0.73026E+06 
  50812.9020     0.72765E+06 
  50845.1642     0.72563E+06 
  50877.4263     0.72367E+06 
  50909.6885     0.72115E+06 
  50941.9506     0.71755E+06 
  50974.2128     0.71258E+06 
  51006.4750     0.70621E+06 
  51038.7371     0.69865E+06 
  51070.9993     0.69024E+06 
  51103.2614     0.68137E+06 
  51135.5236     0.67243E+06 
  51167.7858     0.66370E+06 
  51200.0479     0.65534E+06 
  51232.3101     0.64733E+06 
  51264.5722     0.63953E+06 
  51296.8344     0.63167E+06 
  51329.0966     0.62345E+06 
  51361.3587     0.61459E+06 
  51393.6209     0.60495E+06 
  51425.8830     0.59451E+06 
  51458.1452     0.58339E+06 
  51490.4074     0.57185E+06 
  51522.6695     0.56026E+06 
  51554.9317     0.54907E+06 
  51587.1938     0.53872E+06 
  51619.4560     0.52957E+06 
  51651.7182     0.52180E+06 
  51683.9803     0.51539E+06 
  51716.2425     0.51014E+06 
  51748.5046     0.50573E+06 
  51780.7668     0.50186E+06 
  51813.0290     0.49828E+06 
  51845.2911     0.49484E+06 
  51877.5533     0.49151E+06 
  51909.8154     0.48832E+06 
  51942.0776     0.48536E+06 
  51974.3398     0.48272E+06 
  52006.6019     0.48046E+06 
  52038.8641     0.47860E+06 
  52071.1262     0.47712E+06 
  52103.3884     0.47595E+06 
  52135.6506     0.47501E+06 
  52167.9127     0.47424E+06 
  52200.1749     0.47359E+06 
  52232.4370     0.47299E+06 
  52264.6992     0.47236E+06 
  52296.9614     0.47157E+06 
  52329.2235     0.47050E+06 
  52361.4857     0.46904E+06 
  52393.7478     0.46715E+06 
  52426.0100     0.46484E+06 
  52458.2722     0.46218E+06 
  52490.5343     0.45926E+06 
  52522.7965     0.45622E+06 
  52555.0586     0.45314E+06 
  52587.3208     0.45009E+06 
  52619.5830     0.44712E+06 
  52651.8451     0.44420E+06 
  52684.1073     0.44129E+06 
  52716.3694     0.43831E+06 
  52748.6316     0.43517E+06 
  52780.8938     0.43182E+06 
  52813.1559     0.42822E+06 
  52845.4181     0.42437E+06 
  52877.6802     0.42027E+06 
  52909.9424     0.41596E+06 
  52942.2046     0.41146E+06 
  52974.4667     0.40682E+06 
  53006.7289     0.40210E+06 
  53038.9910     0.39738E+06 
  53071.2532     0.39271E+06 
  53103.5154     0.38815E+06 
  53135.7775     0.38370E+06 
  53168.0397     0.37935E+06 
  53200.3018     0.37505E+06 
  53232.5640     0.37076E+06 
  53264.8262     0.36642E+06 
  53297.0883     0.36202E+06 
  53329.3505     0.35755E+06 
  53361.6126     0.35305E+06 
  53393.8748     0.34858E+06 
  53426.1370     0.34425E+06 
  53458.3991     0.34011E+06 
  53490.6613     0.33624E+06 
  53522.9234     0.33264E+06 
  53555.1856     0.32930E+06 
  53587.4478     0.32619E+06 
  53619.7099     0.32324E+06 
  53651.9721     0.32041E+06 
  53684.2342     0.31766E+06 
  53716.4964     0.31495E+06 
  53748.7586     0.31228E+06 
  53781.0207     0.30964E+06 
  53813.2829     0.30705E+06 
  53845.5450     0.30453E+06 
  53877.8072     0.30213E+06 
  53910.0694     0.29987E+06 
  53942.3315     0.29777E+06 
  53974.5937     0.29585E+06 
  54006.8558     0.29410E+06 
  54039.1180     0.29250E+06 
  54071.3802     0.29104E+06 
  54103.6423     0.28966E+06 
  54135.9045     0.28834E+06 
  54168.1666     0.28705E+06 
  54200.4288     0.28580E+06 
  54232.6910     0.28458E+06 
  54264.9531     0.28344E+06 
  54297.2153     0.28239E+06 
  54329.4774     0.28146E+06 
  54361.7396     0.28065E+06 
  54394.0018     0.27997E+06 
  54426.2639     0.27940E+06 
  54458.5261     0.27889E+06 
  54490.7882     0.27842E+06 
  54523.0504     0.27797E+06 
  54555.3126     0.27752E+06 
  54587.5747     0.27706E+06 
  54619.8369     0.27663E+06 
  54652.0990     0.27623E+06 
  54684.3612     0.27590E+06 
  54716.6234     0.27565E+06 
  54748.8855     0.27549E+06 
  54781.1477     0.27540E+06 
  54813.4098     0.27538E+06 
  54845.6720     0.27539E+06 
  54877.9342     0.27540E+06 
  54910.1963     0.27541E+06 
  54942.4585     0.27541E+06 
  54974.7206     0.27540E+06 
  55006.9828     0.27540E+06 
  55039.2450     0.27545E+06 
  55071.5071     0.27557E+06 
  55103.7693     0.27579E+06 
  55136.0314     0.27612E+06 
  55168.2936     0.27655E+06 
  55200.5558     0.27706E+06 
  55232.8179     0.27764E+06 
  55265.0801     0.27828E+06 
  55297.3422     0.27895E+06 
  55329.6044     0.27967E+06 
  55361.8666     0.28046E+06 
  55394.1287     0.28133E+06 
  55426.3909     0.28230E+06 
  55458.6530     0.28338E+06 
  55490.9152     0.28458E+06 
  55523.1774     0.28589E+06 
  55555.4395     0.28728E+06 
  55587.7017     0.28874E+06 
  55619.9638     0.29024E+06 
  55652.2260     0.29178E+06 
  55684.4882     0.29335E+06 
  55716.7503     0.29496E+06 
  55749.0125     0.29661E+06 
  55781.2746     0.29830E+06 
  55813.5368     0.30002E+06 
  55845.7990     0.30175E+06 
  55878.0611     0.30345E+06 
  55910.3233     0.30509E+06 
  55942.5854     0.30661E+06 
  55974.8476     0.30799E+06 
  56007.1098     0.30920E+06 
  56039.3719     0.31024E+06 
  56071.6341     0.31114E+06 
  56103.8962     0.31193E+06 
  56136.1584     0.31265E+06 
  56168.4206     0.31334E+06 
  56200.6827     0.31401E+06 
  56232.9449     0.31465E+06 
  56265.2070     0.31522E+06 
  56297.4692     0.31566E+06 
  56329.7314     0.31592E+06 
  56361.9935     0.31594E+06 
  56394.2557     0.31573E+06 
  56426.5178     0.31530E+06 
  56458.7800     0.31473E+06 
  56491.0422     0.31411E+06 
  56523.3043     0.31352E+06 
  56555.5665     0.31305E+06 
  56587.8286     0.31272E+06 
  56620.0908     0.31254E+06 
  56652.3530     0.31246E+06 
  56684.6151     0.31242E+06 
  56716.8773     0.31237E+06 
  56749.1394     0.31228E+06 
  56781.4016     0.31215E+06 
  56813.6638     0.31202E+06 
  56845.9259     0.31196E+06 
  56878.1881     0.31204E+06 
  56910.4502     0.31233E+06 
  56942.7124     0.31287E+06 
  56974.9746     0.31366E+06 
  57007.2367     0.31468E+06 
  57039.4989     0.31588E+06 
  57071.7610     0.31721E+06 
  57104.0232     0.31864E+06 
  57136.2854     0.32013E+06 
  57168.5475     0.32168E+06 
  57200.8097     0.32331E+06 
  57233.0718     0.32504E+06 
  57265.3340     0.32688E+06 
  57297.5962     0.32883E+06 
  57329.8583     0.33086E+06 
  57362.1205     0.33294E+06 
  57394.3826     0.33502E+06 
  57426.6448     0.33704E+06 
  57458.9070     0.33895E+06 
  57491.1691     0.34072E+06 
  57523.4313     0.34232E+06 
  57555.6934     0.34376E+06 
  57587.9556     0.34507E+06 
  57620.2178     0.34626E+06 
  57652.4799     0.34734E+06 
  57684.7421     0.34833E+06 
  57717.0042     0.34919E+06 
  57749.2664     0.34987E+06 
  57781.5286     0.35032E+06 
  57813.7907     0.35047E+06 
  57846.0529     0.35028E+06 
  57878.3150     0.34973E+06 
  57910.5772     0.34886E+06 
  57942.8394     0.34771E+06 
  57975.1015     0.34638E+06 
  58007.3637     0.34495E+06 
  58039.6258     0.34349E+06 
  58071.8880     0.34201E+06 
  58104.1502     0.34051E+06 
  58136.4123     0.33894E+06 
  58168.6745     0.33725E+06 
  58200.9366     0.33537E+06 
  58233.1988     0.33329E+06 
  58265.4610     0.33103E+06 
  58297.7231     0.32866E+06 
  58329.9853     0.32626E+06 
  58362.2474     0.32392E+06 
  58394.5096     0.32174E+06 
  58426.7718     0.31975E+06 
  58459.0339     0.31797E+06 
  58491.2961     0.31637E+06 
  58523.5582     0.31490E+06 
  58555.8204     0.31352E+06 
  58588.0826     0.31219E+06 
  58620.3447     0.31090E+06 
  58652.6069     0.30967E+06 
  58684.8690     0.30855E+06 
  58717.1312     0.30757E+06 
  58749.3934     0.30677E+06 
  58781.6555     0.30618E+06 
  58813.9177     0.30579E+06 
  58846.1798     0.30557E+06 
  58878.4420     0.30548E+06 
  58910.7042     0.30547E+06 
  58942.9663     0.30550E+06 
  58975.2285     0.30553E+06 
  59007.4906     0.30555E+06 
  59039.7528     0.30555E+06 
  59072.0150     0.30556E+06 
  59104.2771     0.30557E+06 
  59136.5393     0.30561E+06 
  59168.8014     0.30565E+06 
  59201.0636     0.30569E+06 
  59233.3258     0.30568E+06 
  59265.5879     0.30558E+06 
  59297.8501     0.30534E+06 
  59330.1122     0.30491E+06 
  59362.3744     0.30429E+06 
  59394.6366     0.30347E+06 
  59426.8987     0.30246E+06 
  59459.1609     0.30132E+06 
  59491.4230     0.30007E+06 
  59523.6852     0.29874E+06 
  59555.9474     0.29735E+06 
  59588.2095     0.29587E+06 
  59620.4717     0.29429E+06 
  59652.7338     0.29255E+06 
  59684.9960     0.29063E+06 
  59717.2582     0.28851E+06 
  59749.5203     0.28619E+06 
  59781.7825     0.28372E+06 
  59814.0446     0.28115E+06 
  59846.3068     0.27853E+06 
  59878.5690     0.27592E+06 
  59910.8311     0.27336E+06 
  59943.0933     0.27085E+06 
  59975.3554     0.26837E+06 
  60007.6176     0.26590E+06 
  60039.8798     0.26342E+06 
  60072.1419     0.26090E+06 
  60104.4041     0.25835E+06 
  60136.6662     0.25579E+06 
  60168.9284     0.25325E+06 
  60201.1906     0.25079E+06 
  60233.4527     0.24843E+06 
  60265.7149     0.24620E+06 
  60297.9770     0.24410E+06 
  60330.2392     0.24213E+06 
  60362.5014     0.24026E+06 
  60394.7635     0.23846E+06 
  60427.0257     0.23673E+06 
  60459.2878     0.23503E+06 
  60491.5500     0.23338E+06 
  60523.8122     0.23177E+06 
  60556.0743     0.23023E+06 
  60588.3365     0.22876E+06 
  60620.5986     0.22736E+06 
  60652.8608     0.22605E+06 
  60685.1230     0.22481E+06 
  60717.3851     0.22361E+06 
  60749.6473     0.22245E+06 
  60781.9094     0.22128E+06 
  60814.1716     0.22009E+06 
  60846.4338     0.21886E+06 
  60878.6959     0.21760E+06 
  60910.9581     0.21630E+06 
  60943.2202     0.21497E+06 
  60975.4824     0.21363E+06 
  61007.7446     0.21228E+06 
  61040.0067     0.21093E+06 
  61072.2689     0.20955E+06 
  61104.5310     0.20814E+06 
  61136.7932     0.20667E+06 
  61169.0554     0.20513E+06 
  61201.3175     0.20351E+06 
  61233.5797     0.20179E+06 
  61265.8418     0.20000E+06 
  61298.1040     0.19816E+06 
  61330.3662     0.19627E+06 
  61362.6283     0.19437E+06 
  61394.8905     0.19247E+06 
  61427.1526     0.19056E+06 
  61459.4148     0.18864E+06 
  61491.6770     0.18669E+06 
  61523.9391     0.18472E+06 
  61556.2013     0.18270E+06 
  61588.4634     0.18064E+06 
  61620.7256     0.17855E+06 
  61652.9878     0.17646E+06 
  61685.2499     0.17437E+06 
  61717.5121     0.17231E+06 
  61749.7742     0.17029E+06 
  61782.0364     0.16832E+06 
  61814.2986     0.16639E+06 
  61846.5607     0.16450E+06 
  61878.8229     0.16263E+06 
  61911.0850     0.16079E+06 
  61943.3472     0.15896E+06 
  61975.6094     0.15716E+06 
  62007.8715     0.15538E+06 
  62040.1337     0.15364E+06 
  62072.3958     0.15195E+06 
  62104.6580     0.15031E+06 
  62136.9202     0.14872E+06 
  62169.1823     0.14719E+06 
  62201.4445     0.14570E+06 
  62233.7066     0.14424E+06 
  62265.9688     0.14282E+06 
  62298.2310     0.14141E+06 
  62330.4931     0.14002E+06 
  62362.7553     0.13864E+06 
  62395.0174     0.13728E+06 
  62427.2796     0.13594E+06 
  62459.5418     0.13463E+06 
  62491.8039     0.13333E+06 
  62524.0661     0.13206E+06 
  62556.3282     0.13081E+06 
  62588.5904     0.12957E+06 
  62620.8526     0.12833E+06 
  62653.1147     0.12708E+06 
  62685.3769     0.12583E+06 
  62717.6390     0.12456E+06 
  62749.9012     0.12328E+06 
  62782.1634     0.12200E+06 
  62814.4255     0.12071E+06 
  62846.6877     0.11943E+06 
  62878.9498     0.11815E+06 
  62911.2120     0.11688E+06 
  62943.4742     0.11561E+06 
  62975.7363     0.11433E+06 
  63007.9985     0.11305E+06 
  63040.2606     0.11175E+06 
  63072.5228     0.11045E+06 
  63104.7850     0.10913E+06 
  63137.0471     0.10781E+06 
  63169.3093     0.10650E+06 
  63201.5714     0.10519E+06 
  63233.8336     0.10390E+06 
  63266.0958     0.10262E+06 
  63298.3579     0.10135E+06 
  63330.6201     0.10010E+06 
  63362.8822     0.98851E+05 
  63395.1444     0.97611E+05 
  63427.4066     0.96378E+05 
  63459.6687     0.95154E+05 
  63491.9309     0.93942E+05 
  63524.1930     0.92747E+05 
  63556.4552     0.91571E+05 
  63588.7174     0.90417E+05 
  63620.9795     0.89287E+05 
  63653.2417     0.88179E+05 
  63685.5038     0.87092E+05 
  63717.7660     0.86023E+05 
  63750.0282     0.84972E+05 
  63782.2903     0.83936E+05 
  63814.5525     0.82914E+05 
  63846.8146     0.81908E+05 
  63879.0768     0.80919E+05 
  63911.3390     0.79947E+05 
  63943.6011     0.78994E+05 
  63975.8633     0.78060E+05 
  64008.1254     0.77143E+05 
  64040.3876     0.76243E+05 
  64072.6498     0.75358E+05 
  64104.9119     0.74485E+05 
  64137.1741     0.73622E+05 
  64169.4362     0.72767E+05 
  64201.6984     0.71921E+05 
  64233.9606     0.71083E+05 
  64266.2227     0.70253E+05 
  64298.4849     0.69433E+05 
  64330.7470     0.68624E+05 
  64363.0092     0.67824E+05 
  64395.2714     0.67034E+05 
  64427.5335     0.66251E+05 
  64459.7957     0.65475E+05 
  64492.0578     0.64704E+05 
  64524.3200     0.63937E+05 
  64556.5822     0.63174E+05 
  64588.8443     0.62414E+05 
  64621.1065     0.61660E+05 
  64653.3686     0.60912E+05 
  64685.6308     0.60171E+05 
  64717.8930     0.59439E+05 
  64750.1551     0.58715E+05 
  64782.4173     0.57998E+05 
  64814.6794     0.57288E+05 
  64846.9416     0.56585E+05 
  64879.2038     0.55887E+05 
  64911.4659     0.55195E+05 
  64943.7281     0.54509E+05 
  64975.9902     0.53830E+05 
  65008.2524     0.53160E+05 
  65040.5146     0.52498E+05 
  65072.7767     0.51847E+05 
  65105.0389     0.51206E+05 
  65137.3010     0.50574E+05 
  65169.5632     0.49952E+05 
  65201.8254     0.49339E+05 
  65234.0875     0.48734E+05 
  65266.3497     0.48138E+05 
  65298.6118     0.47550E+05 
  65330.8740     0.46970E+05 
  65363.1362     0.46400E+05 
  65395.3983     0.45840E+05 
  65427.6605     0.45289E+05 
  65459.9226     0.44748E+05 
  65492.1848     0.44216E+05 
  65524.4470     0.43694E+05 
  65556.7091     0.43180E+05 
  65588.9713     0.42675E+05 
  65621.2334     0.42177E+05 
  65653.4956     0.41686E+05 
  65685.7578     0.41203E+05 
  65718.0199     0.40727E+05 
  65750.2821     0.40258E+05 
  65782.5442     0.39797E+05 
  65814.8064     0.39343E+05 
  65847.0686     0.38897E+05 
  65879.3307     0.38457E+05 
  65911.5929     0.38024E+05 
  65943.8550     0.37597E+05 
  65976.1172     0.37175E+05 
  66008.3794     0.36759E+05 
  66040.6415     0.36348E+05 
  66072.9037     0.35942E+05 
  66105.1658     0.35542E+05 
  66137.4280     0.35147E+05 
  66169.6902     0.34758E+05 
  66201.9523     0.34374E+05 
  66234.2145     0.33995E+05 
  66266.4766     0.33622E+05 
  66298.7388     0.33254E+05 
  66331.0010     0.32890E+05 
  66363.2631     0.32531E+05 
  66395.5253     0.32176E+05 
  66427.7874     0.31826E+05 
  66460.0496     0.31481E+05 
  66492.3118     0.31140E+05 
  66524.5739     0.30805E+05 
  66556.8361     0.30474E+05 
  66589.0982     0.30149E+05 
  66621.3604     0.29828E+05 
  66653.6226     0.29513E+05 
  66685.8847     0.29202E+05 
  66718.1469     0.28895E+05 
  66750.4090     0.28593E+05 
  66782.6712     0.28296E+05 
  66814.9334     0.28003E+05 
  66847.1955     0.27715E+05 
  66879.4577     0.27431E+05 
  66911.7198     0.27153E+05 
  66943.9820     0.26879E+05 
  66976.2442     0.26610E+05 
  67008.5063     0.26345E+05 
  67040.7685     0.26084E+05 
  67073.0306     0.25828E+05 
  67105.2928     0.25576E+05 
  67137.5550     0.25328E+05 
  67169.8171     0.25085E+05 
  67202.0793     0.24845E+05 
  67234.3414     0.24609E+05 
  67266.6036     0.24378E+05 
  67298.8658     0.24150E+05 
  67331.1279     0.23927E+05 
  67363.3901     0.23707E+05 
  67395.6522     0.23490E+05 
  67427.9144     0.23278E+05 
  67460.1766     0.23068E+05 
  67492.4387     0.22862E+05 
  67524.7009     0.22660E+05 
  67556.9630     0.22460E+05 
  67589.2252     0.22264E+05 
  67621.4874     0.22071E+05 
  67653.7495     0.21882E+05 
  67686.0117     0.21695E+05 
  67718.2738     0.21512E+05 
  67750.5360     0.21331E+05 
  67782.7982     0.21154E+05 
  67815.0603     0.20979E+05 
  67847.3225     0.20807E+05 
  67879.5846     0.20638E+05 
  67911.8468     0.20471E+05 
  67944.1090     0.20307E+05 
  67976.3711     0.20146E+05 
  68008.6333     0.19987E+05 
  68040.8954     0.19832E+05 
  68073.1576     0.19678E+05 
  68105.4198     0.19528E+05 
  68137.6819     0.19379E+05 
  68169.9441     0.19234E+05 
  68202.2062     0.19090E+05 
  68234.4684     0.18950E+05 
  68266.7306     0.18811E+05 
  68298.9927     0.18675E+05 
  68331.2549     0.18541E+05 
  68363.5170     0.18410E+05 
  68395.7792     0.18280E+05 
  68428.0414     0.18154E+05 
  68460.3035     0.18029E+05 
  68492.5657     0.17907E+05 
  68524.8278     0.17786E+05 
  68557.0900     0.17668E+05 
  68589.3522     0.17552E+05 
  68621.6143     0.17438E+05 
  68653.8765     0.17327E+05 
  68686.1386     0.17217E+05 
  68718.4008     0.17109E+05 
  68750.6630     0.17003E+05 
  68782.9251     0.16899E+05 
  68815.1873     0.16798E+05 
  68847.4494     0.16698E+05 
  68879.7116     0.16599E+05 
  68911.9738     0.16503E+05 
  68944.2359     0.16408E+05 
  68976.4981     0.16316E+05 
  69008.7602     0.16225E+05 
  69041.0224     0.16135E+05 
  69073.2846     0.16048E+05 
  69105.5467     0.15962E+05 
  69137.8089     0.15877E+05 
  69170.0710     0.15795E+05 
  69202.3332     0.15713E+05 
  69234.5954     0.15634E+05 
  69266.8575     0.15556E+05 
  69299.1197     0.15479E+05 
  69331.3818     0.15404E+05 
  69363.6440     0.15330E+05 
  69395.9062     0.15258E+05 
  69428.1683     0.15187E+05 
  69460.4305     0.15118E+05 
  69492.6926     0.15050E+05 
  69524.9548     0.14983E+05 
  69557.2170     0.14917E+05 
  69589.4791     0.14853E+05 
  69621.7413     0.14791E+05 
  69654.0034     0.14729E+05 
  69686.2656     0.14669E+05 
  69718.5278     0.14610E+05 
  69750.7899     0.14552E+05 
  69783.0521     0.14496E+05 
  69815.3142     0.14440E+05 
  69847.5764     0.14386E+05 
  69879.8386     0.14333E+05 
  69912.1007     0.14281E+05 
  69944.3629     0.14230E+05 
  69976.6250     0.14181E+05 
  70008.8872     0.14132E+05 
  70041.1494     0.14085E+05 
  70073.4115     0.14039E+05 
  70105.6737     0.13993E+05 
  70137.9358     0.13949E+05 
  70170.1980     0.13906E+05 
  70202.4602     0.13864E+05 
  70234.7223     0.13822E+05 
  70266.9845     0.13782E+05 
  70299.2466     0.13743E+05 
  70331.5088     0.13705E+05 
  70363.7710     0.13667E+05 
  70396.0331     0.13631E+05 
  70428.2953     0.13596E+05 
  70460.5574     0.13561E+05 
  70492.8196     0.13528E+05 
  70525.0818     0.13495E+05 
  70557.3439     0.13463E+05 
  70589.6061     0.13432E+05 
  70621.8682     0.13402E+05 
  70654.1304     0.13373E+05 
  70686.3926     0.13344E+05 
  70718.6547     0.13317E+05 
  70750.9169     0.13290E+05 
  70783.1790     0.13264E+05 
  70815.4412     0.13239E+05 
  70847.7034     0.13214E+05 
  70879.9655     0.13191E+05 
  70912.2277     0.13168E+05 
  70944.4898     0.13146E+05 
  70976.7520     0.13124E+05 
  71009.0142     0.13104E+05 
  71041.2763     0.13084E+05 
  71073.5385     0.13064E+05 
  71105.8006     0.13046E+05 
  71138.0628     0.13028E+05 
  71170.3250     0.13011E+05 
  71202.5871     0.12995E+05 
  71234.8493     0.12979E+05 
  71267.1114     0.12964E+05 
  71299.3736     0.12950E+05 
  71331.6358     0.12936E+05 
  71363.8979     0.12923E+05 
  71396.1601     0.12910E+05 
  71428.4222     0.12899E+05 
  71460.6844     0.12887E+05 
  71492.9466     0.12877E+05 
  71525.2087     0.12867E+05 
  71557.4709     0.12858E+05 
  71589.7330     0.12849E+05 
  71621.9952     0.12841E+05 
  71654.2574     0.12833E+05 
  71686.5195     0.12826E+05 
  71718.7817     0.12820E+05 
  71751.0438     0.12814E+05 
  71783.3060     0.12809E+05 
  71815.5682     0.12805E+05 
  71847.8303     0.12801E+05 
  71880.0925     0.12797E+05 
  71912.3546     0.12794E+05 
  71944.6168     0.12792E+05 
  71976.8790     0.12790E+05 
  72009.1411     0.12789E+05 
  72041.4033     0.12788E+05 
  72073.6654     0.12788E+05 
  72105.9276     0.12788E+05 
  72138.1898     0.12789E+05 
  72170.4519     0.12790E+05 
  72202.7141     0.12792E+05 
  72234.9762     0.12794E+05 
  72267.2384     0.12797E+05 
  72299.5006     0.12801E+05 
  72331.7627     0.12805E+05 
  72364.0249     0.12809E+05 
  72396.2870     0.12814E+05 
  72428.5492     0.12819E+05 
  72460.8114     0.12825E+05 
  72493.0735     0.12831E+05 
  72525.3357     0.12838E+05 
  72557.5978     0.12846E+05 
  72589.8600     0.12853E+05 
