  32262.1600     0.19620E-06 
  32302.4877     0.20074E-06 
  32342.8154     0.20539E-06 
  32383.1431     0.21015E-06 
  32423.4708     0.21502E-06 
  32463.7985     0.22001E-06 
  32504.1262     0.22511E-06 
  32544.4539     0.23034E-06 
  32584.7816     0.23569E-06 
  32625.1093     0.24116E-06 
  32665.4370     0.24677E-06 
  32705.7647     0.25251E-06 
  32746.0924     0.25838E-06 
  32786.4201     0.26440E-06 
  32826.7478     0.27056E-06 
  32867.0755     0.27687E-06 
  32907.4032     0.28334E-06 
  32947.7309     0.28995E-06 
  32988.0586     0.29673E-06 
  33028.3863     0.30367E-06 
  33068.7140     0.31078E-06 
  33109.0417     0.31807E-06 
  33149.3694     0.32553E-06 
  33189.6971     0.33318E-06 
  33230.0248     0.34101E-06 
  33270.3525     0.34903E-06 
  33310.6802     0.35725E-06 
  33351.0079     0.36568E-06 
  33391.3356     0.37431E-06 
  33431.6633     0.38316E-06 
  33471.9910     0.39223E-06 
  33512.3187     0.40153E-06 
  33552.6464     0.41105E-06 
  33592.9741     0.42082E-06 
  33633.3018     0.43083E-06 
  33673.6295     0.44110E-06 
  33713.9572     0.45162E-06 
  33754.2849     0.46241E-06 
  33794.6126     0.47348E-06 
  33834.9403     0.48483E-06 
  33875.2680     0.49647E-06 
  33915.5957     0.50840E-06 
  33955.9234     0.52065E-06 
  33996.2511     0.53320E-06 
  34036.5788     0.54609E-06 
  34076.9065     0.55931E-06 
  34117.2342     0.57287E-06 
  34157.5619     0.58678E-06 
  34197.8896     0.60106E-06 
  34238.2173     0.61572E-06 
  34278.5450     0.63076E-06 
  34318.8727     0.64620E-06 
  34359.2004     0.66205E-06 
  34399.5281     0.67831E-06 
  34439.8558     0.69502E-06 
  34480.1835     0.71217E-06 
  34520.5112     0.72978E-06 
  34560.8389     0.74786E-06 
  34601.1666     0.76644E-06 
  34641.4943     0.78551E-06 
  34681.8220     0.80511E-06 
  34722.1497     0.82524E-06 
  34762.4774     0.84593E-06 
  34802.8051     0.86718E-06 
  34843.1328     0.88902E-06 
  34883.4605     0.91146E-06 
  34923.7882     0.93453E-06 
  34964.1159     0.95824E-06 
  35004.4436     0.98261E-06 
  35044.7713     0.10077E-05 
  35085.0990     0.10334E-05 
  35125.4267     0.10599E-05 
  35165.7544     0.10872E-05 
  35206.0821     0.11152E-05 
  35246.4098     0.11440E-05 
  35286.7375     0.11737E-05 
  35327.0652     0.12042E-05 
  35367.3929     0.12356E-05 
  35407.7206     0.12679E-05 
  35448.0483     0.13012E-05 
  35488.3760     0.13354E-05 
  35528.7037     0.13707E-05 
  35569.0314     0.14070E-05 
  35609.3591     0.14443E-05 
  35649.6868     0.14828E-05 
  35690.0145     0.15225E-05 
  35730.3422     0.15633E-05 
  35770.6699     0.16054E-05 
  35810.9976     0.16487E-05 
  35851.3253     0.16934E-05 
  35891.6530     0.17394E-05 
  35931.9807     0.17868E-05 
  35972.3084     0.18358E-05 
  36012.6361     0.18862E-05 
  36052.9638     0.19382E-05 
  36093.2915     0.19919E-05 
  36133.6192     0.20472E-05 
  36173.9469     0.21043E-05 
  36214.2746     0.21632E-05 
  36254.6023     0.22240E-05 
  36294.9300     0.22867E-05 
  36335.2577     0.23515E-05 
  36375.5854     0.24184E-05 
  36415.9131     0.24875E-05 
  36456.2408     0.25588E-05 
  36496.5685     0.26325E-05 
  36536.8962     0.27086E-05 
  36577.2239     0.27873E-05 
  36617.5516     0.28686E-05 
  36657.8793     0.29526E-05 
  36698.2070     0.30395E-05 
  36738.5347     0.31293E-05 
  36778.8624     0.32223E-05 
  36819.1901     0.33184E-05 
  36859.5178     0.34178E-05 
  36899.8455     0.35208E-05 
  36940.1732     0.36273E-05 
  36980.5009     0.37376E-05 
  37020.8286     0.38518E-05 
  37061.1563     0.39701E-05 
  37101.4840     0.40926E-05 
  37141.8117     0.42196E-05 
  37182.1394     0.43512E-05 
  37222.4671     0.44875E-05 
  37262.7948     0.46290E-05 
  37303.1225     0.47756E-05 
  37343.4502     0.49277E-05 
  37383.7779     0.50856E-05 
  37424.1056     0.52494E-05 
  37464.4333     0.54194E-05 
  37504.7610     0.55959E-05 
  37545.0887     0.57793E-05 
  37585.4164     0.59698E-05 
  37625.7441     0.61677E-05 
  37666.0718     0.63734E-05 
  37706.3995     0.65873E-05 
  37746.7272     0.68097E-05 
  37787.0549     0.70411E-05 
  37827.3826     0.72818E-05 
  37867.7103     0.75324E-05 
  37908.0380     0.77934E-05 
  37948.3657     0.80651E-05 
  37988.6934     0.83482E-05 
  38029.0211     0.86432E-05 
  38069.3488     0.89508E-05 
  38109.6765     0.92716E-05 
  38150.0042     0.96061E-05 
  38190.3319     0.99553E-05 
  38230.6596     0.10320E-04 
  38270.9873     0.10700E-04 
  38311.3150     0.11098E-04 
  38351.6427     0.11514E-04 
  38391.9704     0.11948E-04 
  38432.2981     0.12402E-04 
  38472.6258     0.12878E-04 
  38512.9535     0.13375E-04 
  38553.2812     0.13896E-04 
  38593.6089     0.14442E-04 
  38633.9366     0.15014E-04 
  38674.2643     0.15614E-04 
  38714.5920     0.16243E-04 
  38754.9197     0.16903E-04 
  38795.2474     0.17596E-04 
  38835.5751     0.18324E-04 
  38875.9028     0.19090E-04 
  38916.2305     0.19895E-04 
  38956.5582     0.20741E-04 
  38996.8859     0.21633E-04 
  39037.2136     0.22572E-04 
  39077.5413     0.23561E-04 
  39117.8690     0.24605E-04 
  39158.1967     0.25706E-04 
  39198.5244     0.26868E-04 
  39238.8521     0.28096E-04 
  39279.1798     0.29394E-04 
  39319.5075     0.30767E-04 
  39359.8352     0.32221E-04 
  39400.1629     0.33761E-04 
  39440.4906     0.35393E-04 
  39480.8183     0.37125E-04 
  39521.1460     0.38964E-04 
  39561.4737     0.40918E-04 
  39601.8014     0.42996E-04 
  39642.1291     0.45208E-04 
  39682.4568     0.47565E-04 
  39722.7845     0.50078E-04 
  39763.1122     0.52759E-04 
  39803.4399     0.55625E-04 
  39843.7676     0.58689E-04 
  39884.0953     0.61969E-04 
  39924.4230     0.65485E-04 
  39964.7507     0.69257E-04 
  40005.0784     0.73309E-04 
  40045.4061     0.77666E-04 
  40085.7338     0.82358E-04 
  40126.0615     0.87418E-04 
  40166.3892     0.92880E-04 
  40206.7169     0.98786E-04 
  40247.0446     0.10518E-03 
  40287.3723     0.11212E-03 
  40327.7000     0.11965E-03 
  40368.0277     0.12785E-03 
  40408.3554     0.13678E-03 
  40448.6831     0.14653E-03 
  40489.0108     0.15720E-03 
  40529.3385     0.16889E-03 
  40569.6662     0.18174E-03 
  40609.9939     0.19587E-03 
  40650.3216     0.21147E-03 
  40690.6493     0.22871E-03 
  40730.9770     0.24783E-03 
  40771.3047     0.26908E-03 
  40811.6324     0.29276E-03 
  40851.9601     0.31922E-03 
  40892.2878     0.34888E-03 
  40932.6155     0.38223E-03 
  40972.9432     0.41984E-03 
  41013.2709     0.46241E-03 
  41053.5986     0.51073E-03 
  41093.9263     0.56577E-03 
  41134.2540     0.62869E-03 
  41174.5817     0.70084E-03 
  41214.9094     0.78383E-03 
  41255.2371     0.87955E-03 
  41295.5648     0.99019E-03 
  41335.8925     0.11183E-02 
  41376.2202     0.12665E-02 
  41416.5479     0.14378E-02 
  41456.8756     0.16351E-02 
  41497.2033     0.18609E-02 
  41537.5310     0.21171E-02 
  41577.8587     0.24044E-02 
  41618.1864     0.27219E-02 
  41658.5141     0.30669E-02 
  41698.8418     0.34344E-02 
  41739.1695     0.38178E-02 
  41779.4972     0.42084E-02 
  41819.8249     0.45961E-02 
  41860.1526     0.49695E-02 
  41900.4803     0.53171E-02 
  41940.8080     0.56269E-02 
  41981.1357     0.58876E-02 
  42021.4634     0.60892E-02 
  42061.7911     0.62234E-02 
  42102.1188     0.62840E-02 
  42142.4465     0.62679E-02 
  42182.7742     0.61751E-02 
  42223.1019     0.60086E-02 
  42263.4296     0.57743E-02 
  42303.7573     0.54806E-02 
  42344.0850     0.51376E-02 
  42384.4127     0.47566E-02 
  42424.7404     0.43494E-02 
  42465.0681     0.39274E-02 
  42505.3958     0.35015E-02 
  42545.7235     0.30810E-02 
  42586.0512     0.26741E-02 
  42626.3789     0.22874E-02 
  42666.7066     0.19260E-02 
  42707.0343     0.15934E-02 
  42747.3620     0.12923E-02 
  42787.6897     0.10241E-02 
  42828.0174     0.78970E-03 
  42868.3451     0.58940E-03 
  42908.6728     0.42338E-03 
  42949.0005     0.29175E-03 
  42989.3282     0.19482E-03 
  43029.6559     0.13319E-03 
  43069.9836     0.10789E-03 
  43110.3113     0.12043E-03 
  43150.6390     0.17279E-03 
  43190.9667     0.26730E-03 
  43231.2944     0.40650E-03 
  43271.6221     0.59286E-03 
  43311.9498     0.82834E-03 
  43352.2775     0.11140E-02 
  43392.6052     0.14497E-02 
  43432.9329     0.18334E-02 
  43473.2606     0.22610E-02 
  43513.5883     0.27266E-02 
  43553.9160     0.32219E-02 
  43594.2437     0.37366E-02 
  43634.5714     0.42590E-02 
  43674.8991     0.47756E-02 
  43715.2268     0.52727E-02 
  43755.5545     0.57360E-02 
  43795.8822     0.61518E-02 
  43836.2099     0.65078E-02 
  43876.5376     0.67938E-02 
  43916.8653     0.70020E-02 
  43957.1930     0.71277E-02 
  43997.5207     0.71694E-02 
  44037.8484     0.71290E-02 
  44078.1761     0.70111E-02 
  44118.5038     0.68226E-02 
  44158.8315     0.65725E-02 
  44199.1592     0.62708E-02 
  44239.4869     0.59280E-02 
  44279.8146     0.55545E-02 
  44320.1423     0.51604E-02 
  44360.4700     0.47547E-02 
  44400.7977     0.43454E-02 
  44441.1254     0.39391E-02 
  44481.4531     0.35415E-02 
  44521.7808     0.31567E-02 
  44562.1085     0.27880E-02 
  44602.4362     0.24378E-02 
  44642.7639     0.21077E-02 
  44683.0916     0.17989E-02 
  44723.4193     0.15120E-02 
  44763.7470     0.12477E-02 
  44804.0747     0.10065E-02 
  44844.4024     0.78898E-03 
  44884.7301     0.59588E-03 
  44925.0578     0.42821E-03 
  44965.3855     0.28719E-03 
  45005.7132     0.17422E-03 
  45046.0409     0.90834E-04 
  45086.3686     0.38505E-04 
  45126.6963     0.18492E-04 
  45167.0240     0.31624E-04 
  45207.3517     0.78102E-04 
  45247.6794     0.15733E-03 
  45288.0071     0.26775E-03 
  45328.3348     0.40685E-03 
  45368.6625     0.57105E-03 
  45408.9902     0.75586E-03 
  45449.3179     0.95591E-03 
  45489.6456     0.11652E-02 
  45529.9733     0.13773E-02 
  45570.3010     0.15857E-02 
  45610.6287     0.17840E-02 
  45650.9564     0.19665E-02 
  45691.2841     0.21280E-02 
  45731.6118     0.22645E-02 
  45771.9395     0.23732E-02 
  45812.2672     0.24526E-02 
  45852.5949     0.25021E-02 
  45892.9226     0.25224E-02 
  45933.2503     0.25152E-02 
  45973.5780     0.24827E-02 
  46013.9057     0.24277E-02 
  46054.2334     0.23534E-02 
  46094.5611     0.22628E-02 
  46134.8888     0.21591E-02 
  46175.2165     0.20454E-02 
  46215.5442     0.19242E-02 
  46255.8719     0.17980E-02 
  46296.1996     0.16688E-02 
  46336.5273     0.15383E-02 
  46376.8550     0.14081E-02 
  46417.1827     0.12794E-02 
  46457.5104     0.11530E-02 
  46497.8381     0.10299E-02 
  46538.1658     0.91085E-03 
  46578.4935     0.79644E-03 
  46618.8212     0.68738E-03 
  46659.1489     0.58434E-03 
  46699.4766     0.48803E-03 
  46739.8043     0.39923E-03 
  46780.1320     0.31873E-03 
  46820.4597     0.24735E-03 
  46860.7874     0.18589E-03 
  46901.1151     0.13506E-03 
  46941.4428     0.95448E-04 
  46981.7705     0.67458E-04 
  47022.0982     0.51251E-04 
  47062.4259     0.46713E-04 
  47102.7536     0.53425E-04 
  47143.0813     0.70656E-04 
  47183.4090     0.97372E-04 
  47223.7367     0.13226E-03 
  47264.0644     0.17378E-03 
  47304.3921     0.22021E-03 
  47344.7198     0.26972E-03 
  47385.0475     0.32049E-03 
  47425.3752     0.37076E-03 
  47465.7029     0.41889E-03 
  47506.0306     0.46347E-03 
  47546.3583     0.50337E-03 
  47586.6860     0.53770E-03 
  47627.0137     0.56590E-03 
  47667.3414     0.58766E-03 
  47707.6691     0.60295E-03 
  47747.9968     0.61192E-03 
  47788.3245     0.61492E-03 
  47828.6522     0.61241E-03 
  47868.9799     0.60492E-03 
  47909.3076     0.59303E-03 
  47949.6353     0.57734E-03 
  47989.9630     0.55843E-03 
  48030.2907     0.53684E-03 
  48070.6184     0.51307E-03 
  48110.9461     0.48759E-03 
  48151.2738     0.46081E-03 
  48191.6015     0.43309E-03 
  48231.9292     0.40477E-03 
  48272.2569     0.37614E-03 
  48312.5846     0.34750E-03 
  48352.9123     0.31909E-03 
  48393.2400     0.29119E-03 
  48433.5677     0.26406E-03 
  48473.8954     0.23794E-03 
  48514.2231     0.21310E-03 
  48554.5508     0.18980E-03 
  48594.8785     0.16829E-03 
  48635.2062     0.14880E-03 
  48675.5339     0.13155E-03 
  48715.8616     0.11671E-03 
  48756.1893     0.10440E-03 
  48796.5170     0.94713E-04 
  48836.8447     0.87646E-04 
  48877.1724     0.83149E-04 
  48917.5001     0.81101E-04 
  48957.8278     0.81319E-04 
  48998.1555     0.83558E-04 
  49038.4832     0.87528E-04 
  49078.8109     0.92898E-04 
  49119.1386     0.99318E-04 
  49159.4663     0.10643E-03 
  49199.7940     0.11388E-03 
  49240.1217     0.12134E-03 
  49280.4494     0.12853E-03 
  49320.7771     0.13518E-03 
  49361.1048     0.14112E-03 
  49401.4325     0.14618E-03 
  49441.7602     0.15027E-03 
  49482.0879     0.15334E-03 
  49522.4156     0.15536E-03 
  49562.7433     0.15637E-03 
  49603.0710     0.15641E-03 
  49643.3987     0.15554E-03 
  49683.7264     0.15383E-03 
  49724.0541     0.15138E-03 
  49764.3818     0.14826E-03 
  49804.7095     0.14457E-03 
  49845.0372     0.14038E-03 
  49885.3649     0.13577E-03 
  49925.6926     0.13082E-03 
  49966.0203     0.12561E-03 
  50006.3480     0.12018E-03 
  50046.6757     0.11462E-03 
  50087.0034     0.10897E-03 
  50127.3311     0.10329E-03 
  50167.6588     0.97652E-04 
  50207.9865     0.92098E-04 
  50248.3142     0.86687E-04 
  50288.6419     0.81473E-04 
  50328.9696     0.76509E-04 
  50369.2973     0.71841E-04 
  50409.6250     0.67515E-04 
  50449.9527     0.63568E-04 
  50490.2804     0.60030E-04 
  50530.6081     0.56923E-04 
  50570.9358     0.54257E-04 
  50611.2635     0.52035E-04 
  50651.5912     0.50244E-04 
  50691.9189     0.48866E-04 
  50732.2466     0.47868E-04 
  50772.5743     0.47212E-04 
  50812.9020     0.46852E-04 
  50853.2297     0.46736E-04 
  50893.5574     0.46810E-04 
  50933.8851     0.47020E-04 
  50974.2128     0.47315E-04 
  51014.5405     0.47644E-04 
  51054.8682     0.47965E-04 
  51095.1959     0.48242E-04 
  51135.5236     0.48445E-04 
  51175.8513     0.48550E-04 
  51216.1790     0.48542E-04 
  51256.5067     0.48412E-04 
  51296.8344     0.48156E-04 
  51337.1621     0.47773E-04 
  51377.4898     0.47269E-04 
  51417.8175     0.46649E-04 
  51458.1452     0.45923E-04 
  51498.4729     0.45101E-04 
  51538.8006     0.44193E-04 
  51579.1283     0.43210E-04 
  51619.4560     0.42164E-04 
  51659.7837     0.41064E-04 
  51700.1114     0.39922E-04 
  51740.4391     0.38747E-04 
  51780.7668     0.37550E-04 
  51821.0945     0.36339E-04 
  51861.4222     0.35125E-04 
  51901.7499     0.33915E-04 
  51942.0776     0.32720E-04 
  51982.4053     0.31547E-04 
  52022.7330     0.30405E-04 
  52063.0607     0.29301E-04 
  52103.3884     0.28244E-04 
  52143.7161     0.27239E-04 
  52184.0438     0.26292E-04 
  52224.3715     0.25407E-04 
  52264.6992     0.24588E-04 
  52305.0269     0.23836E-04 
  52345.3546     0.23152E-04 
  52385.6823     0.22534E-04 
  52426.0100     0.21981E-04 
  52466.3377     0.21488E-04 
  52506.6654     0.21049E-04 
  52546.9931     0.20660E-04 
  52587.3208     0.20314E-04 
  52627.6485     0.20003E-04 
  52667.9762     0.19720E-04 
  52708.3039     0.19458E-04 
  52748.6316     0.19211E-04 
  52788.9593     0.18973E-04 
  52829.2870     0.18739E-04 
  52869.6147     0.18504E-04 
  52909.9424     0.18265E-04 
  52950.2701     0.18020E-04 
  52990.5978     0.17765E-04 
  53030.9255     0.17502E-04 
  53071.2532     0.17228E-04 
  53111.5809     0.16945E-04 
  53151.9086     0.16652E-04 
  53192.2363     0.16351E-04 
  53232.5640     0.16042E-04 
  53272.8917     0.15726E-04 
  53313.2194     0.15405E-04 
  53353.5471     0.15080E-04 
  53393.8748     0.14752E-04 
  53434.2025     0.14422E-04 
  53474.5302     0.14092E-04 
  53514.8579     0.13763E-04 
  53555.1856     0.13436E-04 
  53595.5133     0.13112E-04 
  53635.8410     0.12793E-04 
  53676.1687     0.12479E-04 
  53716.4964     0.12171E-04 
  53756.8241     0.11871E-04 
  53797.1518     0.11579E-04 
  53837.4795     0.11297E-04 
  53877.8072     0.11024E-04 
  53918.1349     0.10762E-04 
  53958.4626     0.10511E-04 
  53998.7903     0.10271E-04 
  54039.1180     0.10042E-04 
  54079.4457     0.98246E-05 
  54119.7734     0.96181E-05 
  54160.1011     0.94220E-05 
  54200.4288     0.92360E-05 
  54240.7565     0.90591E-05 
  54281.0842     0.88908E-05 
  54321.4119     0.87301E-05 
  54361.7396     0.85761E-05 
  54402.0673     0.84279E-05 
  54442.3950     0.82847E-05 
  54482.7227     0.81456E-05 
  54523.0504     0.80099E-05 
  54563.3781     0.78769E-05 
  54603.7058     0.77461E-05 
  54644.0335     0.76171E-05 
  54684.3612     0.74894E-05 
  54724.6889     0.73628E-05 
  54765.0166     0.72372E-05 
  54805.3443     0.71124E-05 
  54845.6720     0.69885E-05 
  54885.9997     0.68653E-05 
  54926.3274     0.67430E-05 
  54966.6551     0.66215E-05 
  55006.9828     0.65011E-05 
  55047.3105     0.63818E-05 
  55087.6382     0.62637E-05 
  55127.9659     0.61469E-05 
  55168.2936     0.60316E-05 
  55208.6213     0.59178E-05 
  55248.9490     0.58057E-05 
  55289.2767     0.56954E-05 
  55329.6044     0.55870E-05 
  55369.9321     0.54806E-05 
  55410.2598     0.53762E-05 
  55450.5875     0.52740E-05 
  55490.9152     0.51741E-05 
  55531.2429     0.50765E-05 
  55571.5706     0.49813E-05 
  55611.8983     0.48885E-05 
  55652.2260     0.47981E-05 
  55692.5537     0.47102E-05 
  55732.8814     0.46247E-05 
  55773.2091     0.45417E-05 
  55813.5368     0.44610E-05 
  55853.8645     0.43826E-05 
  55894.1922     0.43064E-05 
  55934.5199     0.42324E-05 
  55974.8476     0.41603E-05 
  56015.1753     0.40902E-05 
  56055.5030     0.40218E-05 
  56095.8307     0.39551E-05 
  56136.1584     0.38899E-05 
  56176.4861     0.38261E-05 
  56216.8138     0.37637E-05 
  56257.1415     0.37024E-05 
  56297.4692     0.36423E-05 
  56337.7969     0.35832E-05 
  56378.1246     0.35251E-05 
  56418.4523     0.34680E-05 
  56458.7800     0.34117E-05 
  56499.1077     0.33563E-05 
  56539.4354     0.33018E-05 
  56579.7631     0.32480E-05 
  56620.0908     0.31951E-05 
  56660.4185     0.31429E-05 
  56700.7462     0.30916E-05 
  56741.0739     0.30410E-05 
  56781.4016     0.29912E-05 
  56821.7293     0.29421E-05 
  56862.0570     0.28939E-05 
  56902.3847     0.28464E-05 
  56942.7124     0.27997E-05 
  56983.0401     0.27538E-05 
  57023.3678     0.27087E-05 
  57063.6955     0.26644E-05 
  57104.0232     0.26208E-05 
  57144.3509     0.25780E-05 
  57184.6786     0.25360E-05 
  57225.0063     0.24948E-05 
  57265.3340     0.24543E-05 
  57305.6617     0.24146E-05 
  57345.9894     0.23756E-05 
  57386.3171     0.23374E-05 
  57426.6448     0.22999E-05 
  57466.9725     0.22632E-05 
  57507.3002     0.22271E-05 
  57547.6279     0.21918E-05 
  57587.9556     0.21571E-05 
  57628.2833     0.21231E-05 
  57668.6110     0.20897E-05 
  57708.9387     0.20569E-05 
  57749.2664     0.20247E-05 
  57789.5941     0.19931E-05 
  57829.9218     0.19621E-05 
  57870.2495     0.19315E-05 
  57910.5772     0.19015E-05 
  57950.9049     0.18720E-05 
  57991.2326     0.18430E-05 
  58031.5603     0.18144E-05 
  58071.8880     0.17862E-05 
  58112.2157     0.17586E-05 
  58152.5434     0.17313E-05 
  58192.8711     0.17044E-05 
  58233.1988     0.16780E-05 
  58273.5265     0.16520E-05 
  58313.8542     0.16263E-05 
  58354.1819     0.16010E-05 
  58394.5096     0.15761E-05 
  58434.8373     0.15516E-05 
  58475.1650     0.15275E-05 
  58515.4927     0.15037E-05 
  58555.8204     0.14802E-05 
  58596.1481     0.14572E-05 
  58636.4758     0.14344E-05 
  58676.8035     0.14120E-05 
  58717.1312     0.13900E-05 
  58757.4589     0.13682E-05 
  58797.7866     0.13468E-05 
  58838.1143     0.13258E-05 
  58878.4420     0.13050E-05 
  58918.7697     0.12846E-05 
  58959.0974     0.12644E-05 
  58999.4251     0.12446E-05 
  59039.7528     0.12251E-05 
  59080.0805     0.12058E-05 
  59120.4082     0.11869E-05 
  59160.7359     0.11682E-05 
  59201.0636     0.11499E-05 
  59241.3913     0.11318E-05 
  59281.7190     0.11139E-05 
  59322.0467     0.10964E-05 
  59362.3744     0.10790E-05 
  59402.7021     0.10620E-05 
  59443.0298     0.10452E-05 
  59483.3575     0.10286E-05 
  59523.6852     0.10123E-05 
  59564.0129     0.99618E-06 
  59604.3406     0.98032E-06 
  59644.6683     0.96467E-06 
  59684.9960     0.94925E-06 
  59725.3237     0.93404E-06 
  59765.6514     0.91904E-06 
  59805.9791     0.90425E-06 
  59846.3068     0.88966E-06 
  59886.6345     0.87527E-06 
  59926.9622     0.86108E-06 
  59967.2899     0.84708E-06 
  60007.6176     0.83326E-06 
  60047.9453     0.81964E-06 
  60088.2730     0.80620E-06 
  60128.6007     0.79294E-06 
  60168.9284     0.77986E-06 
  60209.2561     0.76695E-06 
  60249.5838     0.75422E-06 
  60289.9115     0.74165E-06 
  60330.2392     0.72926E-06 
  60370.5669     0.71703E-06 
  60410.8946     0.70496E-06 
  60451.2223     0.69306E-06 
  60491.5500     0.68131E-06 
  60531.8777     0.66972E-06 
  60572.2054     0.65828E-06 
  60612.5331     0.64699E-06 
  60652.8608     0.63586E-06 
  60693.1885     0.62487E-06 
  60733.5162     0.61403E-06 
  60773.8439     0.60333E-06 
  60814.1716     0.59277E-06 
  60854.4993     0.58235E-06 
  60894.8270     0.57207E-06 
  60935.1547     0.56192E-06 
  60975.4824     0.55190E-06 
  61015.8101     0.54202E-06 
  61056.1378     0.53227E-06 
  61096.4655     0.52264E-06 
  61136.7932     0.51314E-06 
  61177.1209     0.50377E-06 
  61217.4486     0.49451E-06 
  61257.7763     0.48538E-06 
  61298.1040     0.47636E-06 
  61338.4317     0.46747E-06 
  61378.7594     0.45869E-06 
  61419.0871     0.45002E-06 
  61459.4148     0.44146E-06 
  61499.7425     0.43302E-06 
  61540.0702     0.42468E-06 
  61580.3979     0.41646E-06 
  61620.7256     0.40834E-06 
  61661.0533     0.40032E-06 
  61701.3810     0.39241E-06 
  61741.7087     0.38460E-06 
  61782.0364     0.37690E-06 
  61822.3641     0.36929E-06 
  61862.6918     0.36179E-06 
  61903.0195     0.35438E-06 
  61943.3472     0.34707E-06 
  61983.6749     0.33986E-06 
  62024.0026     0.33274E-06 
  62064.3303     0.32572E-06 
  62104.6580     0.31879E-06 
  62144.9857     0.31195E-06 
  62185.3134     0.30520E-06 
  62225.6411     0.29854E-06 
  62265.9688     0.29197E-06 
  62306.2965     0.28549E-06 
  62346.6242     0.27910E-06 
  62386.9519     0.27279E-06 
  62427.2796     0.26657E-06 
  62467.6073     0.26044E-06 
  62507.9350     0.25439E-06 
  62548.2627     0.24842E-06 
  62588.5904     0.24253E-06 
  62628.9181     0.23673E-06 
  62669.2458     0.23101E-06 
  62709.5735     0.22537E-06 
  62749.9012     0.21981E-06 
  62790.2289     0.21432E-06 
  62830.5566     0.20892E-06 
  62870.8843     0.20359E-06 
  62911.2120     0.19834E-06 
  62951.5397     0.19317E-06 
  62991.8674     0.18808E-06 
  63032.1951     0.18305E-06 
  63072.5228     0.17811E-06 
  63112.8505     0.17324E-06 
  63153.1782     0.16844E-06 
  63193.5059     0.16371E-06 
  63233.8336     0.15906E-06 
  63274.1613     0.15448E-06 
  63314.4890     0.14998E-06 
  63354.8167     0.14554E-06 
  63395.1444     0.14118E-06 
  63435.4721     0.13688E-06 
  63475.7998     0.13266E-06 
  63516.1275     0.12851E-06 
  63556.4552     0.12442E-06 
  63596.7829     0.12041E-06 
  63637.1106     0.11646E-06 
  63677.4383     0.11259E-06 
  63717.7660     0.10878E-06 
  63758.0937     0.10504E-06 
  63798.4214     0.10137E-06 
  63838.7491     0.97765E-07 
  63879.0768     0.94229E-07 
  63919.4045     0.90760E-07 
  63959.7322     0.87358E-07 
  64000.0599     0.84023E-07 
  64040.3876     0.80754E-07 
  64080.7153     0.77552E-07 
  64121.0430     0.74417E-07 
  64161.3707     0.71348E-07 
  64201.6984     0.68345E-07 
  64242.0261     0.65408E-07 
  64282.3538     0.62537E-07 
  64322.6815     0.59731E-07 
  64363.0092     0.56992E-07 
  64403.3369     0.54319E-07 
  64443.6646     0.51711E-07 
  64483.9923     0.49169E-07 
  64524.3200     0.46693E-07 
  64564.6477     0.44282E-07 
  64604.9754     0.41937E-07 
  64645.3031     0.39658E-07 
  64685.6308     0.37445E-07 
  64725.9585     0.35298E-07 
  64766.2862     0.33216E-07 
  64806.6139     0.31201E-07 
  64846.9416     0.29252E-07 
  64887.2693     0.27369E-07 
  64927.5970     0.25553E-07 
  64967.9247     0.23803E-07 
  65008.2524     0.22120E-07 
  65048.5801     0.20504E-07 
  65088.9078     0.18955E-07 
  65129.2355     0.17473E-07 
  65169.5632     0.16059E-07 
  65209.8909     0.14713E-07 
  65250.2186     0.13434E-07 
  65290.5463     0.12224E-07 
  65330.8740     0.11082E-07 
  65371.2017     0.10009E-07 
  65411.5294     0.90056E-08 
  65451.8571     0.80713E-08 
  65492.1848     0.72067E-08 
  65532.5125     0.64123E-08 
  65572.8402     0.56884E-08 
  65613.1679     0.50354E-08 
  65653.4956     0.44536E-08 
  65693.8233     0.39435E-08 
  65734.1510     0.35055E-08 
  65774.4787     0.31400E-08 
  65814.8064     0.28476E-08 
  65855.1341     0.26286E-08 
  65895.4618     0.24836E-08 
  65935.7895     0.24130E-08 
  65976.1172     0.24175E-08 
  66016.4449     0.24975E-08 
  66056.7726     0.26536E-08 
  66097.1003     0.28864E-08 
  66137.4280     0.31964E-08 
  66177.7557     0.35843E-08 
  66218.0834     0.40507E-08 
  66258.4111     0.45963E-08 
  66298.7388     0.52217E-08 
  66339.0665     0.59275E-08 
  66379.3942     0.67145E-08 
  66419.7219     0.75835E-08 
  66460.0496     0.85351E-08 
  66500.3773     0.95701E-08 
  66540.7050     0.10689E-07 
  66581.0327     0.11893E-07 
  66621.3604     0.13183E-07 
  66661.6881     0.14560E-07 
  66702.0158     0.16024E-07 
  66742.3435     0.17576E-07 
  66782.6712     0.19218E-07 
  66822.9989     0.20950E-07 
  66863.3266     0.22773E-07 
  66903.6543     0.24688E-07 
  66943.9820     0.26696E-07 
  66984.3097     0.28798E-07 
  67024.6374     0.30996E-07 
  67064.9651     0.33289E-07 
  67105.2928     0.35680E-07 
  67145.6205     0.38169E-07 
  67185.9482     0.40758E-07 
  67226.2759     0.43447E-07 
  67266.6036     0.46238E-07 
  67306.9313     0.49132E-07 
  67347.2590     0.52131E-07 
  67387.5867     0.55235E-07 
  67427.9144     0.58445E-07 
  67468.2421     0.61764E-07 
  67508.5698     0.65192E-07 
  67548.8975     0.68731E-07 
  67589.2252     0.72383E-07 
  67629.5529     0.76148E-07 
  67669.8806     0.80028E-07 
  67710.2083     0.84024E-07 
  67750.5360     0.88139E-07 
  67790.8637     0.92373E-07 
  67831.1914     0.96729E-07 
  67871.5191     0.10121E-06 
  67911.8468     0.10581E-06 
  67952.1745     0.11054E-06 
  67992.5022     0.11540E-06 
  68032.8299     0.12038E-06 
  68073.1576     0.12550E-06 
  68113.4853     0.13075E-06 
  68153.8130     0.13614E-06 
  68194.1407     0.14166E-06 
  68234.4684     0.14732E-06 
  68274.7961     0.15313E-06 
  68315.1238     0.15907E-06 
  68355.4515     0.16516E-06 
  68395.7792     0.17140E-06 
  68436.1069     0.17779E-06 
  68476.4346     0.18433E-06 
  68516.7623     0.19102E-06 
  68557.0900     0.19786E-06 
  68597.4177     0.20487E-06 
  68637.7454     0.21204E-06 
  68678.0731     0.21937E-06 
  68718.4008     0.22686E-06 
  68758.7285     0.23452E-06 
  68799.0562     0.24235E-06 
  68839.3839     0.25036E-06 
  68879.7116     0.25854E-06 
  68920.0393     0.26690E-06 
  68960.3670     0.27544E-06 
  69000.6947     0.28417E-06 
  69041.0224     0.29308E-06 
  69081.3501     0.30218E-06 
  69121.6778     0.31147E-06 
  69162.0055     0.32096E-06 
  69202.3332     0.33065E-06 
  69242.6609     0.34054E-06 
  69282.9886     0.35063E-06 
  69323.3163     0.36093E-06 
  69363.6440     0.37145E-06 
  69403.9717     0.38218E-06 
  69444.2994     0.39313E-06 
  69484.6271     0.40430E-06 
  69524.9548     0.41569E-06 
  69565.2825     0.42732E-06 
  69605.6102     0.43918E-06 
  69645.9379     0.45127E-06 
  69686.2656     0.46361E-06 
  69726.5933     0.47619E-06 
  69766.9210     0.48902E-06 
  69807.2487     0.50211E-06 
  69847.5764     0.51545E-06 
  69887.9041     0.52905E-06 
  69928.2318     0.54292E-06 
  69968.5595     0.55707E-06 
  70008.8872     0.57148E-06 
  70049.2149     0.58618E-06 
  70089.5426     0.60116E-06 
  70129.8703     0.61643E-06 
  70170.1980     0.63200E-06 
  70210.5257     0.64786E-06 
  70250.8534     0.66403E-06 
  70291.1811     0.68051E-06 
  70331.5088     0.69731E-06 
  70371.8365     0.71442E-06 
  70412.1642     0.73187E-06 
  70452.4919     0.74964E-06 
  70492.8196     0.76776E-06 
  70533.1473     0.78622E-06 
  70573.4750     0.80503E-06 
  70613.8027     0.82419E-06 
  70654.1304     0.84372E-06 
  70694.4581     0.86362E-06 
  70734.7858     0.88389E-06 
  70775.1135     0.90455E-06 
  70815.4412     0.92559E-06 
  70855.7689     0.94704E-06 
  70896.0966     0.96888E-06 
  70936.4243     0.99114E-06 
  70976.7520     0.10138E-05 
  71017.0797     0.10369E-05 
  71057.4074     0.10605E-05 
  71097.7351     0.10844E-05 
  71138.0628     0.11089E-05 
  71178.3905     0.11338E-05 
  71218.7182     0.11591E-05 
  71259.0459     0.11849E-05 
  71299.3736     0.12113E-05 
  71339.7013     0.12381E-05 
  71380.0290     0.12654E-05 
  71420.3567     0.12932E-05 
  71460.6844     0.13215E-05 
  71501.0121     0.13504E-05 
  71541.3398     0.13798E-05 
  71581.6675     0.14098E-05 
  71621.9952     0.14403E-05 
  71662.3229     0.14714E-05 
  71702.6506     0.15031E-05 
  71742.9783     0.15354E-05 
  71783.3060     0.15683E-05 
  71823.6337     0.16018E-05 
  71863.9614     0.16359E-05 
  71904.2891     0.16707E-05 
  71944.6168     0.17062E-05 
  71984.9445     0.17423E-05 
  72025.2722     0.17790E-05 
  72065.5999     0.18165E-05 
  72105.9276     0.18547E-05 
  72146.2553     0.18936E-05 
  72186.5830     0.19333E-05 
  72226.9107     0.19737E-05 
  72267.2384     0.20148E-05 
  72307.5661     0.20568E-05 
  72347.8938     0.20995E-05 
  72388.2215     0.21430E-05 
  72428.5492     0.21874E-05 
  72468.8769     0.22326E-05 
  72509.2046     0.22787E-05 
  72549.5323     0.23257E-05 
  72589.8600     0.23735E-05 
