  32262.1600     0.50830E-06 
  32294.4222     0.49176E-06 
  32326.6843     0.47546E-06 
  32358.9465     0.45941E-06 
  32391.2086     0.44361E-06 
  32423.4708     0.42806E-06 
  32455.7330     0.41276E-06 
  32487.9951     0.39773E-06 
  32520.2573     0.38294E-06 
  32552.5194     0.36842E-06 
  32584.7816     0.35416E-06 
  32617.0438     0.34016E-06 
  32649.3059     0.32642E-06 
  32681.5681     0.31295E-06 
  32713.8302     0.29974E-06 
  32746.0924     0.28681E-06 
  32778.3546     0.27415E-06 
  32810.6167     0.26176E-06 
  32842.8789     0.24965E-06 
  32875.1410     0.23782E-06 
  32907.4032     0.22626E-06 
  32939.6654     0.21499E-06 
  32971.9275     0.20401E-06 
  33004.1897     0.19331E-06 
  33036.4518     0.18290E-06 
  33068.7140     0.17278E-06 
  33100.9762     0.16296E-06 
  33133.2383     0.15344E-06 
  33165.5005     0.14421E-06 
  33197.7626     0.13529E-06 
  33230.0248     0.12668E-06 
  33262.2870     0.11837E-06 
  33294.5491     0.11038E-06 
  33326.8113     0.10269E-06 
  33359.0734     0.95331E-07 
  33391.3356     0.88287E-07 
  33423.5978     0.81566E-07 
  33455.8599     0.75172E-07 
  33488.1221     0.69108E-07 
  33520.3842     0.63377E-07 
  33552.6464     0.57983E-07 
  33584.9086     0.52928E-07 
  33617.1707     0.48216E-07 
  33649.4329     0.43852E-07 
  33681.6950     0.39838E-07 
  33713.9572     0.36178E-07 
  33746.2194     0.32876E-07 
  33778.4815     0.29936E-07 
  33810.7437     0.27362E-07 
  33843.0058     0.25158E-07 
  33875.2680     0.23327E-07 
  33907.5302     0.21874E-07 
  33939.7923     0.20802E-07 
  33972.0545     0.20118E-07 
  34004.3166     0.19823E-07 
  34036.5788     0.19924E-07 
  34068.8410     0.20424E-07 
  34101.1031     0.21329E-07 
  34133.3653     0.22642E-07 
  34165.6274     0.24368E-07 
  34197.8896     0.26513E-07 
  34230.1518     0.29081E-07 
  34262.4139     0.32076E-07 
  34294.6761     0.35505E-07 
  34326.9382     0.39373E-07 
  34359.2004     0.43683E-07 
  34391.4626     0.48443E-07 
  34423.7247     0.53657E-07 
  34455.9869     0.59331E-07 
  34488.2490     0.65470E-07 
  34520.5112     0.72080E-07 
  34552.7734     0.79166E-07 
  34585.0355     0.86736E-07 
  34617.2977     0.94794E-07 
  34649.5598     0.10335E-06 
  34681.8220     0.11240E-06 
  34714.0842     0.12196E-06 
  34746.3463     0.13204E-06 
  34778.6085     0.14263E-06 
  34810.8706     0.15375E-06 
  34843.1328     0.16541E-06 
  34875.3950     0.17760E-06 
  34907.6571     0.19035E-06 
  34939.9193     0.20364E-06 
  34972.1814     0.21750E-06 
  35004.4436     0.23193E-06 
  35036.7058     0.24693E-06 
  35068.9679     0.26251E-06 
  35101.2301     0.27869E-06 
  35133.4922     0.29547E-06 
  35165.7544     0.31285E-06 
  35198.0166     0.33085E-06 
  35230.2787     0.34947E-06 
  35262.5409     0.36872E-06 
  35294.8030     0.38861E-06 
  35327.0652     0.40915E-06 
  35359.3274     0.43034E-06 
  35391.5895     0.45220E-06 
  35423.8517     0.47474E-06 
  35456.1138     0.49796E-06 
  35488.3760     0.52187E-06 
  35520.6382     0.54649E-06 
  35552.9003     0.57181E-06 
  35585.1625     0.59786E-06 
  35617.4246     0.62464E-06 
  35649.6868     0.65216E-06 
  35681.9490     0.68044E-06 
  35714.2111     0.70947E-06 
  35746.4733     0.73928E-06 
  35778.7354     0.76987E-06 
  35810.9976     0.80126E-06 
  35843.2598     0.83345E-06 
  35875.5219     0.86645E-06 
  35907.7841     0.90029E-06 
  35940.0462     0.93496E-06 
  35972.3084     0.97048E-06 
  36004.5706     0.10069E-05 
  36036.8327     0.10441E-05 
  36069.0949     0.10823E-05 
  36101.3570     0.11213E-05 
  36133.6192     0.11613E-05 
  36165.8814     0.12022E-05 
  36198.1435     0.12440E-05 
  36230.4057     0.12868E-05 
  36262.6678     0.13305E-05 
  36294.9300     0.13753E-05 
  36327.1922     0.14210E-05 
  36359.4543     0.14677E-05 
  36391.7165     0.15154E-05 
  36423.9786     0.15642E-05 
  36456.2408     0.16141E-05 
  36488.5030     0.16650E-05 
  36520.7651     0.17170E-05 
  36553.0273     0.17700E-05 
  36585.2894     0.18242E-05 
  36617.5516     0.18796E-05 
  36649.8138     0.19360E-05 
  36682.0759     0.19937E-05 
  36714.3381     0.20525E-05 
  36746.6002     0.21125E-05 
  36778.8624     0.21738E-05 
  36811.1246     0.22362E-05 
  36843.3867     0.22999E-05 
  36875.6489     0.23649E-05 
  36907.9110     0.24312E-05 
  36940.1732     0.24988E-05 
  36972.4354     0.25677E-05 
  37004.6975     0.26379E-05 
  37036.9597     0.27096E-05 
  37069.2218     0.27826E-05 
  37101.4840     0.28570E-05 
  37133.7462     0.29328E-05 
  37166.0083     0.30101E-05 
  37198.2705     0.30889E-05 
  37230.5326     0.31692E-05 
  37262.7948     0.32509E-05 
  37295.0570     0.33343E-05 
  37327.3191     0.34191E-05 
  37359.5813     0.35056E-05 
  37391.8434     0.35937E-05 
  37424.1056     0.36834E-05 
  37456.3678     0.37747E-05 
  37488.6299     0.38678E-05 
  37520.8921     0.39625E-05 
  37553.1542     0.40590E-05 
  37585.4164     0.41573E-05 
  37617.6786     0.42573E-05 
  37649.9407     0.43592E-05 
  37682.2029     0.44629E-05 
  37714.4650     0.45685E-05 
  37746.7272     0.46759E-05 
  37778.9894     0.47853E-05 
  37811.2515     0.48967E-05 
  37843.5137     0.50101E-05 
  37875.7758     0.51254E-05 
  37908.0380     0.52429E-05 
  37940.3002     0.53624E-05 
  37972.5623     0.54840E-05 
  38004.8245     0.56078E-05 
  38037.0866     0.57337E-05 
  38069.3488     0.58619E-05 
  38101.6110     0.59923E-05 
  38133.8731     0.61250E-05 
  38166.1353     0.62600E-05 
  38198.3974     0.63974E-05 
  38230.6596     0.65372E-05 
  38262.9218     0.66794E-05 
  38295.1839     0.68241E-05 
  38327.4461     0.69713E-05 
  38359.7082     0.71210E-05 
  38391.9704     0.72734E-05 
  38424.2326     0.74283E-05 
  38456.4947     0.75860E-05 
  38488.7569     0.77463E-05 
  38521.0190     0.79094E-05 
  38553.2812     0.80753E-05 
  38585.5434     0.82441E-05 
  38617.8055     0.84157E-05 
  38650.0677     0.85903E-05 
  38682.3298     0.87679E-05 
  38714.5920     0.89485E-05 
  38746.8542     0.91322E-05 
  38779.1163     0.93190E-05 
  38811.3785     0.95090E-05 
  38843.6406     0.97022E-05 
  38875.9028     0.98987E-05 
  38908.1650     0.10099E-04 
  38940.4271     0.10302E-04 
  38972.6893     0.10509E-04 
  39004.9514     0.10719E-04 
  39037.2136     0.10933E-04 
  39069.4758     0.11150E-04 
  39101.7379     0.11371E-04 
  39134.0001     0.11596E-04 
  39166.2622     0.11824E-04 
  39198.5244     0.12057E-04 
  39230.7866     0.12293E-04 
  39263.0487     0.12534E-04 
  39295.3109     0.12778E-04 
  39327.5730     0.13027E-04 
  39359.8352     0.13279E-04 
  39392.0974     0.13536E-04 
  39424.3595     0.13798E-04 
  39456.6217     0.14063E-04 
  39488.8838     0.14334E-04 
  39521.1460     0.14608E-04 
  39553.4082     0.14888E-04 
  39585.6703     0.15172E-04 
  39617.9325     0.15461E-04 
  39650.1946     0.15755E-04 
  39682.4568     0.16053E-04 
  39714.7190     0.16357E-04 
  39746.9811     0.16666E-04 
  39779.2433     0.16980E-04 
  39811.5054     0.17300E-04 
  39843.7676     0.17624E-04 
  39876.0298     0.17954E-04 
  39908.2919     0.18290E-04 
  39940.5541     0.18632E-04 
  39972.8162     0.18979E-04 
  40005.0784     0.19332E-04 
  40037.3406     0.19691E-04 
  40069.6027     0.20056E-04 
  40101.8649     0.20427E-04 
  40134.1270     0.20805E-04 
  40166.3892     0.21189E-04 
  40198.6514     0.21579E-04 
  40230.9135     0.21976E-04 
  40263.1757     0.22380E-04 
  40295.4378     0.22791E-04 
  40327.7000     0.23208E-04 
  40359.9622     0.23633E-04 
  40392.2243     0.24064E-04 
  40424.4865     0.24504E-04 
  40456.7486     0.24950E-04 
  40489.0108     0.25404E-04 
  40521.2730     0.25866E-04 
  40553.5351     0.26336E-04 
  40585.7973     0.26814E-04 
  40618.0594     0.27299E-04 
  40650.3216     0.27794E-04 
  40682.5838     0.28296E-04 
  40714.8459     0.28807E-04 
  40747.1081     0.29327E-04 
  40779.3702     0.29856E-04 
  40811.6324     0.30394E-04 
  40843.8946     0.30941E-04 
  40876.1567     0.31497E-04 
  40908.4189     0.32064E-04 
  40940.6810     0.32639E-04 
  40972.9432     0.33225E-04 
  41005.2054     0.33821E-04 
  41037.4675     0.34427E-04 
  41069.7297     0.35043E-04 
  41101.9918     0.35670E-04 
  41134.2540     0.36308E-04 
  41166.5162     0.36957E-04 
  41198.7783     0.37617E-04 
  41231.0405     0.38289E-04 
  41263.3026     0.38972E-04 
  41295.5648     0.39667E-04 
  41327.8270     0.40375E-04 
  41360.0891     0.41094E-04 
  41392.3513     0.41827E-04 
  41424.6134     0.42572E-04 
  41456.8756     0.43330E-04 
  41489.1378     0.44101E-04 
  41521.3999     0.44886E-04 
  41553.6621     0.45684E-04 
  41585.9242     0.46497E-04 
  41618.1864     0.47324E-04 
  41650.4486     0.48166E-04 
  41682.7107     0.49022E-04 
  41714.9729     0.49894E-04 
  41747.2350     0.50781E-04 
  41779.4972     0.51683E-04 
  41811.7594     0.52602E-04 
  41844.0215     0.53537E-04 
  41876.2837     0.54489E-04 
  41908.5458     0.55458E-04 
  41940.8080     0.56444E-04 
  41973.0702     0.57447E-04 
  42005.3323     0.58469E-04 
  42037.5945     0.59509E-04 
  42069.8566     0.60568E-04 
  42102.1188     0.61646E-04 
  42134.3810     0.62743E-04 
  42166.6431     0.63860E-04 
  42198.9053     0.64997E-04 
  42231.1674     0.66155E-04 
  42263.4296     0.67334E-04 
  42295.6918     0.68535E-04 
  42327.9539     0.69757E-04 
  42360.2161     0.71002E-04 
  42392.4782     0.72269E-04 
  42424.7404     0.73560E-04 
  42457.0026     0.74874E-04 
  42489.2647     0.76213E-04 
  42521.5269     0.77576E-04 
  42553.7890     0.78964E-04 
  42586.0512     0.80379E-04 
  42618.3134     0.81819E-04 
  42650.5755     0.83286E-04 
  42682.8377     0.84780E-04 
  42715.0998     0.86303E-04 
  42747.3620     0.87854E-04 
  42779.6242     0.89433E-04 
  42811.8863     0.91043E-04 
  42844.1485     0.92683E-04 
  42876.4106     0.94353E-04 
  42908.6728     0.96055E-04 
  42940.9350     0.97790E-04 
  42973.1971     0.99557E-04 
  43005.4593     0.10136E-03 
  43037.7214     0.10319E-03 
  43069.9836     0.10506E-03 
  43102.2458     0.10697E-03 
  43134.5079     0.10891E-03 
  43166.7701     0.11089E-03 
  43199.0322     0.11291E-03 
  43231.2944     0.11497E-03 
  43263.5566     0.11706E-03 
  43295.8187     0.11920E-03 
  43328.0809     0.12138E-03 
  43360.3430     0.12360E-03 
  43392.6052     0.12587E-03 
  43424.8674     0.12818E-03 
  43457.1295     0.13053E-03 
  43489.3917     0.13293E-03 
  43521.6538     0.13538E-03 
  43553.9160     0.13788E-03 
  43586.1782     0.14043E-03 
  43618.4403     0.14302E-03 
  43650.7025     0.14567E-03 
  43682.9646     0.14837E-03 
  43715.2268     0.15113E-03 
  43747.4890     0.15394E-03 
  43779.7511     0.15681E-03 
  43812.0133     0.15974E-03 
  43844.2754     0.16272E-03 
  43876.5376     0.16577E-03 
  43908.7998     0.16888E-03 
  43941.0619     0.17205E-03 
  43973.3241     0.17528E-03 
  44005.5862     0.17859E-03 
  44037.8484     0.18196E-03 
  44070.1106     0.18540E-03 
  44102.3727     0.18891E-03 
  44134.6349     0.19250E-03 
  44166.8970     0.19616E-03 
  44199.1592     0.19989E-03 
  44231.4214     0.20371E-03 
  44263.6835     0.20760E-03 
  44295.9457     0.21158E-03 
  44328.2078     0.21564E-03 
  44360.4700     0.21979E-03 
  44392.7322     0.22402E-03 
  44424.9943     0.22835E-03 
  44457.2565     0.23277E-03 
  44489.5186     0.23728E-03 
  44521.7808     0.24189E-03 
  44554.0430     0.24660E-03 
  44586.3051     0.25141E-03 
  44618.5673     0.25633E-03 
  44650.8294     0.26136E-03 
  44683.0916     0.26649E-03 
  44715.3538     0.27174E-03 
  44747.6159     0.27710E-03 
  44779.8781     0.28259E-03 
  44812.1402     0.28819E-03 
  44844.4024     0.29392E-03 
  44876.6646     0.29978E-03 
  44908.9267     0.30577E-03 
  44941.1889     0.31189E-03 
  44973.4510     0.31815E-03 
  45005.7132     0.32456E-03 
  45037.9754     0.33111E-03 
  45070.2375     0.33781E-03 
  45102.4997     0.34466E-03 
  45134.7618     0.35167E-03 
  45167.0240     0.35884E-03 
  45199.2862     0.36618E-03 
  45231.5483     0.37369E-03 
  45263.8105     0.38138E-03 
  45296.0726     0.38924E-03 
  45328.3348     0.39730E-03 
  45360.5970     0.40554E-03 
  45392.8591     0.41397E-03 
  45425.1213     0.42261E-03 
  45457.3834     0.43146E-03 
  45489.6456     0.44052E-03 
  45521.9078     0.44979E-03 
  45554.1699     0.45929E-03 
  45586.4321     0.46902E-03 
  45618.6942     0.47899E-03 
  45650.9564     0.48921E-03 
  45683.2186     0.49967E-03 
  45715.4807     0.51040E-03 
  45747.7429     0.52139E-03 
  45780.0050     0.53265E-03 
  45812.2672     0.54420E-03 
  45844.5294     0.55604E-03 
  45876.7915     0.56818E-03 
  45909.0537     0.58063E-03 
  45941.3158     0.59339E-03 
  45973.5780     0.60648E-03 
  46005.8402     0.61991E-03 
  46038.1023     0.63368E-03 
  46070.3645     0.64782E-03 
  46102.6266     0.66232E-03 
  46134.8888     0.67721E-03 
  46167.1510     0.69248E-03 
  46199.4131     0.70816E-03 
  46231.6753     0.72426E-03 
  46263.9374     0.74079E-03 
  46296.1996     0.75777E-03 
  46328.4618     0.77520E-03 
  46360.7239     0.79311E-03 
  46392.9861     0.81151E-03 
  46425.2482     0.83041E-03 
  46457.5104     0.84983E-03 
  46489.7726     0.86979E-03 
  46522.0347     0.89031E-03 
  46554.2969     0.91141E-03 
  46586.5590     0.93310E-03 
  46618.8212     0.95541E-03 
  46651.0834     0.97835E-03 
  46683.3455     0.10019E-02 
  46715.6077     0.10262E-02 
  46747.8698     0.10512E-02 
  46780.1320     0.10769E-02 
  46812.3942     0.11034E-02 
  46844.6563     0.11306E-02 
  46876.9185     0.11587E-02 
  46909.1806     0.11876E-02 
  46941.4428     0.12174E-02 
  46973.7050     0.12480E-02 
  47005.9671     0.12796E-02 
  47038.2293     0.13122E-02 
  47070.4914     0.13458E-02 
  47102.7536     0.13804E-02 
  47135.0158     0.14161E-02 
  47167.2779     0.14529E-02 
  47199.5401     0.14909E-02 
  47231.8022     0.15301E-02 
  47264.0644     0.15705E-02 
  47296.3266     0.16123E-02 
  47328.5887     0.16554E-02 
  47360.8509     0.16999E-02 
  47393.1130     0.17459E-02 
  47425.3752     0.17934E-02 
  47457.6374     0.18425E-02 
  47489.8995     0.18933E-02 
  47522.1617     0.19458E-02 
  47554.4238     0.20001E-02 
  47586.6860     0.20562E-02 
  47618.9482     0.21143E-02 
  47651.2103     0.21744E-02 
  47683.4725     0.22367E-02 
  47715.7346     0.23012E-02 
  47747.9968     0.23680E-02 
  47780.2590     0.24372E-02 
  47812.5211     0.25089E-02 
  47844.7833     0.25833E-02 
  47877.0454     0.26604E-02 
  47909.3076     0.27404E-02 
  47941.5698     0.28234E-02 
  47973.8319     0.29096E-02 
  48006.0941     0.29991E-02 
  48038.3562     0.30920E-02 
  48070.6184     0.31886E-02 
  48102.8806     0.32891E-02 
  48135.1427     0.33935E-02 
  48167.4049     0.35021E-02 
  48199.6670     0.36152E-02 
  48231.9292     0.37329E-02 
  48264.1914     0.38554E-02 
  48296.4535     0.39832E-02 
  48328.7157     0.41163E-02 
  48360.9778     0.42551E-02 
  48393.2400     0.44000E-02 
  48425.5022     0.45511E-02 
  48457.7643     0.47090E-02 
  48490.0265     0.48740E-02 
  48522.2886     0.50464E-02 
  48554.5508     0.52267E-02 
  48586.8130     0.54153E-02 
  48619.0751     0.56129E-02 
  48651.3373     0.58198E-02 
  48683.5994     0.60367E-02 
  48715.8616     0.62641E-02 
  48748.1238     0.65028E-02 
  48780.3859     0.67534E-02 
  48812.6481     0.70167E-02 
  48844.9102     0.72936E-02 
  48877.1724     0.75849E-02 
  48909.4346     0.78916E-02 
  48941.6967     0.82148E-02 
  48973.9589     0.85556E-02 
  49006.2210     0.89152E-02 
  49038.4832     0.92951E-02 
  49070.7454     0.96966E-02 
  49103.0075     0.10121E-01 
  49135.2697     0.10571E-01 
  49167.5318     0.11048E-01 
  49199.7940     0.11554E-01 
  49232.0562     0.12091E-01 
  49264.3183     0.12663E-01 
  49296.5805     0.13270E-01 
  49328.8426     0.13918E-01 
  49361.1048     0.14609E-01 
  49393.3670     0.15347E-01 
  49425.6291     0.16137E-01 
  49457.8913     0.16982E-01 
  49490.1534     0.17888E-01 
  49522.4156     0.18860E-01 
  49554.6778     0.19906E-01 
  49586.9399     0.21032E-01 
  49619.2021     0.22246E-01 
  49651.4642     0.23558E-01 
  49683.7264     0.24976E-01 
  49715.9886     0.26512E-01 
  49748.2507     0.28179E-01 
  49780.5129     0.29990E-01 
  49812.7750     0.31960E-01 
  49845.0372     0.34106E-01 
  49877.2994     0.36447E-01 
  49909.5615     0.39001E-01 
  49941.8237     0.41790E-01 
  49974.0858     0.44836E-01 
  50006.3480     0.48160E-01 
  50038.6102     0.51782E-01 
  50070.8723     0.55720E-01 
  50103.1345     0.59984E-01 
  50135.3966     0.64578E-01 
  50167.6588     0.69494E-01 
  50199.9210     0.74708E-01 
  50232.1831     0.80178E-01 
  50264.4453     0.85842E-01 
  50296.7074     0.91617E-01 
  50328.9696     0.97398E-01 
  50361.2318     0.10307E+00 
  50393.4939     0.10849E+00 
  50425.7561     0.11353E+00 
  50458.0182     0.11805E+00 
  50490.2804     0.12192E+00 
  50522.5426     0.12502E+00 
  50554.8047     0.12726E+00 
  50587.0669     0.12858E+00 
  50619.3290     0.12893E+00 
  50651.5912     0.12831E+00 
  50683.8534     0.12675E+00 
  50716.1155     0.12432E+00 
  50748.3777     0.12110E+00 
  50780.6398     0.11723E+00 
  50812.9020     0.11283E+00 
  50845.1642     0.10808E+00 
  50877.4263     0.10314E+00 
  50909.6885     0.98157E-01 
  50941.9506     0.93284E-01 
  50974.2128     0.88648E-01 
  51006.4750     0.84346E-01 
  51038.7371     0.80452E-01 
  51070.9993     0.77006E-01 
  51103.2614     0.74019E-01 
  51135.5236     0.71481E-01 
  51167.7858     0.69358E-01 
  51200.0479     0.67606E-01 
  51232.3101     0.66174E-01 
  51264.5722     0.65009E-01 
  51296.8344     0.64065E-01 
  51329.0966     0.63307E-01 
  51361.3587     0.62713E-01 
  51393.6209     0.62275E-01 
  51425.8830     0.62004E-01 
  51458.1452     0.61926E-01 
  51490.4074     0.62079E-01 
  51522.6695     0.62512E-01 
  51554.9317     0.63282E-01 
  51587.1938     0.64448E-01 
  51619.4560     0.66071E-01 
  51651.7182     0.68208E-01 
  51683.9803     0.70909E-01 
  51716.2425     0.74219E-01 
  51748.5046     0.78171E-01 
  51780.7668     0.82791E-01 
  51813.0290     0.88093E-01 
  51845.2911     0.94080E-01 
  51877.5533     0.10075E+00 
  51909.8154     0.10807E+00 
  51942.0776     0.11602E+00 
  51974.3398     0.12455E+00 
  52006.6019     0.13359E+00 
  52038.8641     0.14304E+00 
  52071.1262     0.15281E+00 
  52103.3884     0.16275E+00 
  52135.6506     0.17271E+00 
  52167.9127     0.18251E+00 
  52200.1749     0.19195E+00 
  52232.4370     0.20084E+00 
  52264.6992     0.20899E+00 
  52296.9614     0.21622E+00 
  52329.2235     0.22236E+00 
  52361.4857     0.22729E+00 
  52393.7478     0.23091E+00 
  52426.0100     0.23315E+00 
  52458.2722     0.23401E+00 
  52490.5343     0.23352E+00 
  52522.7965     0.23175E+00 
  52555.0586     0.22880E+00 
  52587.3208     0.22482E+00 
  52619.5830     0.21996E+00 
  52651.8451     0.21442E+00 
  52684.1073     0.20838E+00 
  52716.3694     0.20203E+00 
  52748.6316     0.19554E+00 
  52780.8938     0.18906E+00 
  52813.1559     0.18272E+00 
  52845.4181     0.17660E+00 
  52877.6802     0.17078E+00 
  52909.9424     0.16528E+00 
  52942.2046     0.16011E+00 
  52974.4667     0.15527E+00 
  53006.7289     0.15072E+00 
  53038.9910     0.14642E+00 
  53071.2532     0.14235E+00 
  53103.5154     0.13847E+00 
  53135.7775     0.13476E+00 
  53168.0397     0.13119E+00 
  53200.3018     0.12777E+00 
  53232.5640     0.12452E+00 
  53264.8262     0.12145E+00 
  53297.0883     0.11859E+00 
  53329.3505     0.11601E+00 
  53361.6126     0.11373E+00 
  53393.8748     0.11181E+00 
  53426.1370     0.11031E+00 
  53458.3991     0.10926E+00 
  53490.6613     0.10871E+00 
  53522.9234     0.10869E+00 
  53555.1856     0.10923E+00 
  53587.4478     0.11034E+00 
  53619.7099     0.11202E+00 
  53651.9721     0.11428E+00 
  53684.2342     0.11710E+00 
  53716.4964     0.12045E+00 
  53748.7586     0.12430E+00 
  53781.0207     0.12861E+00 
  53813.2829     0.13331E+00 
  53845.5450     0.13836E+00 
  53877.8072     0.14367E+00 
  53910.0694     0.14915E+00 
  53942.3315     0.15470E+00 
  53974.5937     0.16024E+00 
  54006.8558     0.16564E+00 
  54039.1180     0.17079E+00 
  54071.3802     0.17560E+00 
  54103.6423     0.17996E+00 
  54135.9045     0.18379E+00 
  54168.1666     0.18702E+00 
  54200.4288     0.18958E+00 
  54232.6910     0.19145E+00 
  54264.9531     0.19262E+00 
  54297.2153     0.19308E+00 
  54329.4774     0.19287E+00 
  54361.7396     0.19203E+00 
  54394.0018     0.19062E+00 
  54426.2639     0.18870E+00 
  54458.5261     0.18635E+00 
  54490.7882     0.18365E+00 
  54523.0504     0.18068E+00 
  54555.3126     0.17751E+00 
  54587.5747     0.17420E+00 
  54619.8369     0.17082E+00 
  54652.0990     0.16740E+00 
  54684.3612     0.16399E+00 
  54716.6234     0.16060E+00 
  54748.8855     0.15725E+00 
  54781.1477     0.15395E+00 
  54813.4098     0.15069E+00 
  54845.6720     0.14748E+00 
  54877.9342     0.14432E+00 
  54910.1963     0.14120E+00 
  54942.4585     0.13813E+00 
  54974.7206     0.13511E+00 
  55006.9828     0.13214E+00 
  55039.2450     0.12925E+00 
  55071.5071     0.12645E+00 
  55103.7693     0.12376E+00 
  55136.0314     0.12119E+00 
  55168.2936     0.11876E+00 
  55200.5558     0.11651E+00 
  55232.8179     0.11444E+00 
  55265.0801     0.11259E+00 
  55297.3422     0.11095E+00 
  55329.6044     0.10955E+00 
  55361.8666     0.10839E+00 
  55394.1287     0.10748E+00 
  55426.3909     0.10682E+00 
  55458.6530     0.10641E+00 
  55490.9152     0.10623E+00 
  55523.1774     0.10628E+00 
  55555.4395     0.10654E+00 
  55587.7017     0.10699E+00 
  55619.9638     0.10761E+00 
  55652.2260     0.10838E+00 
  55684.4882     0.10926E+00 
  55716.7503     0.11022E+00 
  55749.0125     0.11123E+00 
  55781.2746     0.11226E+00 
  55813.5368     0.11327E+00 
  55845.7990     0.11423E+00 
  55878.0611     0.11510E+00 
  55910.3233     0.11586E+00 
  55942.5854     0.11647E+00 
  55974.8476     0.11692E+00 
  56007.1098     0.11719E+00 
  56039.3719     0.11727E+00 
  56071.6341     0.11716E+00 
  56103.8962     0.11685E+00 
  56136.1584     0.11635E+00 
  56168.4206     0.11568E+00 
  56200.6827     0.11484E+00 
  56232.9449     0.11385E+00 
  56265.2070     0.11272E+00 
  56297.4692     0.11148E+00 
  56329.7314     0.11015E+00 
  56361.9935     0.10874E+00 
  56394.2557     0.10726E+00 
  56426.5178     0.10574E+00 
  56458.7800     0.10418E+00 
  56491.0422     0.10259E+00 
  56523.3043     0.10099E+00 
  56555.5665     0.99370E-01 
  56587.8286     0.97742E-01 
  56620.0908     0.96111E-01 
  56652.3530     0.94479E-01 
  56684.6151     0.92849E-01 
  56716.8773     0.91226E-01 
  56749.1394     0.89612E-01 
  56781.4016     0.88013E-01 
  56813.6638     0.86433E-01 
  56845.9259     0.84878E-01 
  56878.1881     0.83353E-01 
  56910.4502     0.81865E-01 
  56942.7124     0.80419E-01 
  56974.9746     0.79022E-01 
  57007.2367     0.77678E-01 
  57039.4989     0.76393E-01 
  57071.7610     0.75171E-01 
  57104.0232     0.74015E-01 
  57136.2854     0.72929E-01 
  57168.5475     0.71912E-01 
  57200.8097     0.70967E-01 
  57233.0718     0.70093E-01 
  57265.3340     0.69287E-01 
  57297.5962     0.68548E-01 
  57329.8583     0.67872E-01 
  57362.1205     0.67254E-01 
  57394.3826     0.66689E-01 
  57426.6448     0.66172E-01 
  57458.9070     0.65696E-01 
  57491.1691     0.65253E-01 
  57523.4313     0.64837E-01 
  57555.6934     0.64440E-01 
  57587.9556     0.64053E-01 
  57620.2178     0.63671E-01 
  57652.4799     0.63284E-01 
  57684.7421     0.62888E-01 
  57717.0042     0.62476E-01 
  57749.2664     0.62043E-01 
  57781.5286     0.61586E-01 
  57813.7907     0.61100E-01 
  57846.0529     0.60586E-01 
  57878.3150     0.60040E-01 
  57910.5772     0.59464E-01 
  57942.8394     0.58858E-01 
  57975.1015     0.58225E-01 
  58007.3637     0.57565E-01 
  58039.6258     0.56881E-01 
  58071.8880     0.56177E-01 
  58104.1502     0.55454E-01 
  58136.4123     0.54717E-01 
  58168.6745     0.53967E-01 
  58200.9366     0.53208E-01 
  58233.1988     0.52441E-01 
  58265.4610     0.51669E-01 
  58297.7231     0.50894E-01 
  58329.9853     0.50117E-01 
  58362.2474     0.49339E-01 
  58394.5096     0.48563E-01 
  58426.7718     0.47789E-01 
  58459.0339     0.47018E-01 
  58491.2961     0.46253E-01 
  58523.5582     0.45492E-01 
  58555.8204     0.44739E-01 
  58588.0826     0.43995E-01 
  58620.3447     0.43260E-01 
  58652.6069     0.42535E-01 
  58684.8690     0.41823E-01 
  58717.1312     0.41124E-01 
  58749.3934     0.40439E-01 
  58781.6555     0.39769E-01 
  58813.9177     0.39116E-01 
  58846.1798     0.38480E-01 
  58878.4420     0.37861E-01 
  58910.7042     0.37260E-01 
  58942.9663     0.36677E-01 
  58975.2285     0.36113E-01 
  59007.4906     0.35567E-01 
  59039.7528     0.35038E-01 
  59072.0150     0.34527E-01 
  59104.2771     0.34032E-01 
  59136.5393     0.33553E-01 
  59168.8014     0.33089E-01 
  59201.0636     0.32638E-01 
  59233.3258     0.32200E-01 
  59265.5879     0.31773E-01 
  59297.8501     0.31357E-01 
  59330.1122     0.30948E-01 
  59362.3744     0.30548E-01 
  59394.6366     0.30153E-01 
  59426.8987     0.29764E-01 
  59459.1609     0.29378E-01 
  59491.4230     0.28995E-01 
  59523.6852     0.28614E-01 
  59555.9474     0.28235E-01 
  59588.2095     0.27857E-01 
  59620.4717     0.27479E-01 
  59652.7338     0.27101E-01 
  59684.9960     0.26723E-01 
  59717.2582     0.26346E-01 
  59749.5203     0.25968E-01 
  59781.7825     0.25590E-01 
  59814.0446     0.25214E-01 
  59846.3068     0.24837E-01 
  59878.5690     0.24462E-01 
  59910.8311     0.24089E-01 
  59943.0933     0.23717E-01 
  59975.3554     0.23347E-01 
  60007.6176     0.22979E-01 
  60039.8798     0.22614E-01 
  60072.1419     0.22251E-01 
  60104.4041     0.21892E-01 
  60136.6662     0.21536E-01 
  60168.9284     0.21184E-01 
  60201.1906     0.20836E-01 
  60233.4527     0.20491E-01 
  60265.7149     0.20150E-01 
  60297.9770     0.19814E-01 
  60330.2392     0.19483E-01 
  60362.5014     0.19156E-01 
  60394.7635     0.18833E-01 
  60427.0257     0.18516E-01 
  60459.2878     0.18204E-01 
  60491.5500     0.17897E-01 
  60523.8122     0.17596E-01 
  60556.0743     0.17300E-01 
  60588.3365     0.17010E-01 
  60620.5986     0.16725E-01 
  60652.8608     0.16446E-01 
  60685.1230     0.16173E-01 
  60717.3851     0.15905E-01 
  60749.6473     0.15643E-01 
  60781.9094     0.15387E-01 
  60814.1716     0.15135E-01 
  60846.4338     0.14889E-01 
  60878.6959     0.14649E-01 
  60910.9581     0.14413E-01 
  60943.2202     0.14182E-01 
  60975.4824     0.13956E-01 
  61007.7446     0.13734E-01 
  61040.0067     0.13516E-01 
  61072.2689     0.13302E-01 
  61104.5310     0.13092E-01 
  61136.7932     0.12885E-01 
  61169.0554     0.12682E-01 
  61201.3175     0.12482E-01 
  61233.5797     0.12285E-01 
  61265.8418     0.12091E-01 
  61298.1040     0.11899E-01 
  61330.3662     0.11711E-01 
  61362.6283     0.11524E-01 
  61394.8905     0.11340E-01 
  61427.1526     0.11159E-01 
  61459.4148     0.10979E-01 
  61491.6770     0.10802E-01 
  61523.9391     0.10628E-01 
  61556.2013     0.10455E-01 
  61588.4634     0.10285E-01 
  61620.7256     0.10116E-01 
  61652.9878     0.99502E-02 
  61685.2499     0.97863E-02 
  61717.5121     0.96246E-02 
  61749.7742     0.94652E-02 
  61782.0364     0.93079E-02 
  61814.2986     0.91528E-02 
  61846.5607     0.90000E-02 
  61878.8229     0.88493E-02 
  61911.0850     0.87009E-02 
  61943.3472     0.85548E-02 
  61975.6094     0.84108E-02 
  62007.8715     0.82691E-02 
  62040.1337     0.81297E-02 
  62072.3958     0.79925E-02 
  62104.6580     0.78575E-02 
  62136.9202     0.77247E-02 
  62169.1823     0.75941E-02 
  62201.4445     0.74658E-02 
  62233.7066     0.73397E-02 
  62265.9688     0.72158E-02 
  62298.2310     0.70940E-02 
  62330.4931     0.69745E-02 
  62362.7553     0.68570E-02 
  62395.0174     0.67418E-02 
  62427.2796     0.66286E-02 
  62459.5418     0.65175E-02 
  62491.8039     0.64084E-02 
  62524.0661     0.63014E-02 
  62556.3282     0.61963E-02 
  62588.5904     0.60932E-02 
  62620.8526     0.59920E-02 
  62653.1147     0.58927E-02 
  62685.3769     0.57951E-02 
  62717.6390     0.56994E-02 
  62749.9012     0.56053E-02 
  62782.1634     0.55130E-02 
  62814.4255     0.54223E-02 
  62846.6877     0.53332E-02 
  62878.9498     0.52456E-02 
  62911.2120     0.51596E-02 
  62943.4742     0.50750E-02 
  62975.7363     0.49919E-02 
  63007.9985     0.49101E-02 
  63040.2606     0.48297E-02 
  63072.5228     0.47507E-02 
  63104.7850     0.46729E-02 
  63137.0471     0.45965E-02 
  63169.3093     0.45212E-02 
  63201.5714     0.44472E-02 
  63233.8336     0.43744E-02 
  63266.0958     0.43028E-02 
  63298.3579     0.42324E-02 
  63330.6201     0.41631E-02 
  63362.8822     0.40949E-02 
  63395.1444     0.40278E-02 
  63427.4066     0.39618E-02 
  63459.6687     0.38969E-02 
  63491.9309     0.38331E-02 
  63524.1930     0.37704E-02 
  63556.4552     0.37086E-02 
  63588.7174     0.36479E-02 
  63620.9795     0.35882E-02 
  63653.2417     0.35296E-02 
  63685.5038     0.34719E-02 
  63717.7660     0.34152E-02 
  63750.0282     0.33594E-02 
  63782.2903     0.33046E-02 
  63814.5525     0.32507E-02 
  63846.8146     0.31978E-02 
  63879.0768     0.31458E-02 
  63911.3390     0.30947E-02 
  63943.6011     0.30444E-02 
  63975.8633     0.29951E-02 
  64008.1254     0.29466E-02 
  64040.3876     0.28990E-02 
  64072.6498     0.28522E-02 
  64104.9119     0.28062E-02 
  64137.1741     0.27610E-02 
  64169.4362     0.27167E-02 
  64201.6984     0.26731E-02 
  64233.9606     0.26303E-02 
  64266.2227     0.25883E-02 
  64298.4849     0.25469E-02 
  64330.7470     0.25064E-02 
  64363.0092     0.24665E-02 
  64395.2714     0.24274E-02 
  64427.5335     0.23889E-02 
  64459.7957     0.23511E-02 
  64492.0578     0.23139E-02 
  64524.3200     0.22775E-02 
  64556.5822     0.22416E-02 
  64588.8443     0.22064E-02 
  64621.1065     0.21717E-02 
  64653.3686     0.21377E-02 
  64685.6308     0.21043E-02 
  64717.8930     0.20714E-02 
  64750.1551     0.20391E-02 
  64782.4173     0.20073E-02 
  64814.6794     0.19761E-02 
  64846.9416     0.19454E-02 
  64879.2038     0.19152E-02 
  64911.4659     0.18855E-02 
  64943.7281     0.18564E-02 
  64975.9902     0.18277E-02 
  65008.2524     0.17995E-02 
  65040.5146     0.17717E-02 
  65072.7767     0.17445E-02 
  65105.0389     0.17177E-02 
  65137.3010     0.16913E-02 
  65169.5632     0.16654E-02 
  65201.8254     0.16399E-02 
  65234.0875     0.16149E-02 
  65266.3497     0.15902E-02 
  65298.6118     0.15660E-02 
  65330.8740     0.15422E-02 
  65363.1362     0.15187E-02 
  65395.3983     0.14957E-02 
  65427.6605     0.14731E-02 
  65459.9226     0.14508E-02 
  65492.1848     0.14289E-02 
  65524.4470     0.14074E-02 
  65556.7091     0.13862E-02 
  65588.9713     0.13654E-02 
  65621.2334     0.13449E-02 
  65653.4956     0.13248E-02 
  65685.7578     0.13050E-02 
  65718.0199     0.12855E-02 
  65750.2821     0.12664E-02 
  65782.5442     0.12476E-02 
  65814.8064     0.12291E-02 
  65847.0686     0.12109E-02 
  65879.3307     0.11930E-02 
  65911.5929     0.11754E-02 
  65943.8550     0.11581E-02 
  65976.1172     0.11411E-02 
  66008.3794     0.11243E-02 
  66040.6415     0.11079E-02 
  66072.9037     0.10917E-02 
  66105.1658     0.10757E-02 
  66137.4280     0.10601E-02 
  66169.6902     0.10447E-02 
  66201.9523     0.10295E-02 
  66234.2145     0.10146E-02 
  66266.4766     0.99990E-03 
  66298.7388     0.98547E-03 
  66331.0010     0.97126E-03 
  66363.2631     0.95729E-03 
  66395.5253     0.94354E-03 
  66427.7874     0.93001E-03 
  66460.0496     0.91669E-03 
  66492.3118     0.90359E-03 
  66524.5739     0.89069E-03 
  66556.8361     0.87800E-03 
  66589.0982     0.86551E-03 
  66621.3604     0.85322E-03 
  66653.6226     0.84112E-03 
  66685.8847     0.82922E-03 
  66718.1469     0.81749E-03 
  66750.4090     0.80595E-03 
  66782.6712     0.79460E-03 
  66814.9334     0.78341E-03 
  66847.1955     0.77241E-03 
  66879.4577     0.76157E-03 
  66911.7198     0.75090E-03 
  66943.9820     0.74040E-03 
  66976.2442     0.73005E-03 
  67008.5063     0.71987E-03 
  67040.7685     0.70984E-03 
  67073.0306     0.69997E-03 
  67105.2928     0.69025E-03 
  67137.5550     0.68067E-03 
  67169.8171     0.67125E-03 
  67202.0793     0.66196E-03 
  67234.3414     0.65282E-03 
  67266.6036     0.64381E-03 
  67298.8658     0.63494E-03 
  67331.1279     0.62621E-03 
  67363.3901     0.61761E-03 
  67395.6522     0.60913E-03 
  67427.9144     0.60078E-03 
  67460.1766     0.59256E-03 
  67492.4387     0.58446E-03 
  67524.7009     0.57648E-03 
  67556.9630     0.56862E-03 
  67589.2252     0.56087E-03 
  67621.4874     0.55324E-03 
  67653.7495     0.54572E-03 
  67686.0117     0.53832E-03 
  67718.2738     0.53102E-03 
  67750.5360     0.52382E-03 
  67782.7982     0.51674E-03 
  67815.0603     0.50975E-03 
  67847.3225     0.50287E-03 
  67879.5846     0.49608E-03 
  67911.8468     0.48940E-03 
  67944.1090     0.48280E-03 
  67976.3711     0.47631E-03 
  68008.6333     0.46991E-03 
  68040.8954     0.46359E-03 
  68073.1576     0.45737E-03 
  68105.4198     0.45124E-03 
  68137.6819     0.44519E-03 
  68169.9441     0.43923E-03 
  68202.2062     0.43335E-03 
  68234.4684     0.42755E-03 
  68266.7306     0.42184E-03 
  68298.9927     0.41620E-03 
  68331.2549     0.41064E-03 
  68363.5170     0.40516E-03 
  68395.7792     0.39976E-03 
  68428.0414     0.39443E-03 
  68460.3035     0.38917E-03 
  68492.5657     0.38399E-03 
  68524.8278     0.37887E-03 
  68557.0900     0.37383E-03 
  68589.3522     0.36885E-03 
  68621.6143     0.36394E-03 
  68653.8765     0.35910E-03 
  68686.1386     0.35433E-03 
  68718.4008     0.34961E-03 
  68750.6630     0.34496E-03 
  68782.9251     0.34038E-03 
  68815.1873     0.33585E-03 
  68847.4494     0.33138E-03 
  68879.7116     0.32698E-03 
  68911.9738     0.32263E-03 
  68944.2359     0.31834E-03 
  68976.4981     0.31410E-03 
  69008.7602     0.30993E-03 
  69041.0224     0.30580E-03 
  69073.2846     0.30173E-03 
  69105.5467     0.29771E-03 
  69137.8089     0.29375E-03 
  69170.0710     0.28984E-03 
  69202.3332     0.28597E-03 
  69234.5954     0.28216E-03 
  69266.8575     0.27839E-03 
  69299.1197     0.27468E-03 
  69331.3818     0.27101E-03 
  69363.6440     0.26739E-03 
  69395.9062     0.26381E-03 
  69428.1683     0.26028E-03 
  69460.4305     0.25679E-03 
  69492.6926     0.25335E-03 
  69524.9548     0.24995E-03 
  69557.2170     0.24660E-03 
  69589.4791     0.24328E-03 
  69621.7413     0.24001E-03 
  69654.0034     0.23678E-03 
  69686.2656     0.23359E-03 
  69718.5278     0.23044E-03 
  69750.7899     0.22732E-03 
  69783.0521     0.22425E-03 
  69815.3142     0.22121E-03 
  69847.5764     0.21821E-03 
  69879.8386     0.21525E-03 
  69912.1007     0.21232E-03 
  69944.3629     0.20943E-03 
  69976.6250     0.20657E-03 
  70008.8872     0.20375E-03 
  70041.1494     0.20096E-03 
  70073.4115     0.19821E-03 
  70105.6737     0.19549E-03 
  70137.9358     0.19280E-03 
  70170.1980     0.19014E-03 
  70202.4602     0.18752E-03 
  70234.7223     0.18492E-03 
  70266.9845     0.18236E-03 
  70299.2466     0.17983E-03 
  70331.5088     0.17733E-03 
  70363.7710     0.17486E-03 
  70396.0331     0.17241E-03 
  70428.2953     0.17000E-03 
  70460.5574     0.16761E-03 
  70492.8196     0.16526E-03 
  70525.0818     0.16293E-03 
  70557.3439     0.16062E-03 
  70589.6061     0.15835E-03 
  70621.8682     0.15610E-03 
  70654.1304     0.15387E-03 
  70686.3926     0.15168E-03 
  70718.6547     0.14950E-03 
  70750.9169     0.14736E-03 
  70783.1790     0.14524E-03 
  70815.4412     0.14314E-03 
  70847.7034     0.14106E-03 
  70879.9655     0.13901E-03 
  70912.2277     0.13699E-03 
  70944.4898     0.13499E-03 
  70976.7520     0.13301E-03 
  71009.0142     0.13105E-03 
  71041.2763     0.12911E-03 
  71073.5385     0.12720E-03 
  71105.8006     0.12531E-03 
  71138.0628     0.12344E-03 
  71170.3250     0.12159E-03 
  71202.5871     0.11976E-03 
  71234.8493     0.11796E-03 
  71267.1114     0.11617E-03 
  71299.3736     0.11441E-03 
  71331.6358     0.11266E-03 
  71363.8979     0.11093E-03 
  71396.1601     0.10923E-03 
  71428.4222     0.10754E-03 
  71460.6844     0.10587E-03 
  71492.9466     0.10422E-03 
  71525.2087     0.10259E-03 
  71557.4709     0.10098E-03 
  71589.7330     0.99386E-04 
  71621.9952     0.97810E-04 
  71654.2574     0.96252E-04 
  71686.5195     0.94711E-04 
  71718.7817     0.93188E-04 
  71751.0438     0.91682E-04 
  71783.3060     0.90193E-04 
  71815.5682     0.88721E-04 
  71847.8303     0.87265E-04 
  71880.0925     0.85826E-04 
  71912.3546     0.84403E-04 
  71944.6168     0.82996E-04 
  71976.8790     0.81605E-04 
  72009.1411     0.80230E-04 
  72041.4033     0.78870E-04 
  72073.6654     0.77526E-04 
  72105.9276     0.76197E-04 
  72138.1898     0.74884E-04 
  72170.4519     0.73585E-04 
  72202.7141     0.72301E-04 
  72234.9762     0.71032E-04 
  72267.2384     0.69777E-04 
  72299.5006     0.68537E-04 
  72331.7627     0.67311E-04 
  72364.0249     0.66099E-04 
  72396.2870     0.64901E-04 
  72428.5492     0.63717E-04 
  72460.8114     0.62546E-04 
  72493.0735     0.61389E-04 
  72525.3357     0.60246E-04 
  72557.5978     0.59116E-04 
  72589.8600     0.57999E-04 
