  32262.1600     0.20122E-04 
  32302.4877     0.19479E-04 
  32342.8154     0.18845E-04 
  32383.1431     0.18221E-04 
  32423.4708     0.17606E-04 
  32463.7985     0.17000E-04 
  32504.1262     0.16403E-04 
  32544.4539     0.15816E-04 
  32584.7816     0.15239E-04 
  32625.1093     0.14670E-04 
  32665.4370     0.14112E-04 
  32705.7647     0.13563E-04 
  32746.0924     0.13024E-04 
  32786.4201     0.12494E-04 
  32826.7478     0.11975E-04 
  32867.0755     0.11465E-04 
  32907.4032     0.10966E-04 
  32947.7309     0.10476E-04 
  32988.0586     0.99971E-05 
  33028.3863     0.95281E-05 
  33068.7140     0.90696E-05 
  33109.0417     0.86215E-05 
  33149.3694     0.81840E-05 
  33189.6971     0.77572E-05 
  33230.0248     0.73412E-05 
  33270.3525     0.69360E-05 
  33310.6802     0.65419E-05 
  33351.0079     0.61589E-05 
  33391.3356     0.57870E-05 
  33431.6633     0.54266E-05 
  33471.9910     0.50776E-05 
  33512.3187     0.47402E-05 
  33552.6464     0.44146E-05 
  33592.9741     0.41008E-05 
  33633.3018     0.37990E-05 
  33673.6295     0.35093E-05 
  33713.9572     0.32320E-05 
  33754.2849     0.29670E-05 
  33794.6126     0.27146E-05 
  33834.9403     0.24750E-05 
  33875.2680     0.22482E-05 
  33915.5957     0.20346E-05 
  33955.9234     0.18341E-05 
  33996.2511     0.16470E-05 
  34036.5788     0.14735E-05 
  34076.9065     0.13137E-05 
  34117.2342     0.11678E-05 
  34157.5619     0.10361E-05 
  34197.8896     0.91861E-06 
  34238.2173     0.81565E-06 
  34278.5450     0.72738E-06 
  34318.8727     0.65400E-06 
  34359.2004     0.59572E-06 
  34399.5281     0.55276E-06 
  34439.8558     0.52534E-06 
  34480.1835     0.51367E-06 
  34520.5112     0.51798E-06 
  34560.8389     0.53850E-06 
  34601.1666     0.57547E-06 
  34641.4943     0.62913E-06 
  34681.8220     0.69973E-06 
  34722.1497     0.78752E-06 
  34762.4774     0.89276E-06 
  34802.8051     0.10157E-05 
  34843.1328     0.11566E-05 
  34883.4605     0.13158E-05 
  34923.7882     0.14935E-05 
  34964.1159     0.16901E-05 
  35004.4436     0.19057E-05 
  35044.7713     0.21407E-05 
  35085.0990     0.23955E-05 
  35125.4267     0.26703E-05 
  35165.7544     0.29654E-05 
  35206.0821     0.32812E-05 
  35246.4098     0.36180E-05 
  35286.7375     0.39760E-05 
  35327.0652     0.43558E-05 
  35367.3929     0.47576E-05 
  35407.7206     0.51818E-05 
  35448.0483     0.56287E-05 
  35488.3760     0.60987E-05 
  35528.7037     0.65922E-05 
  35569.0314     0.71096E-05 
  35609.3591     0.76512E-05 
  35649.6868     0.82176E-05 
  35690.0145     0.88090E-05 
  35730.3422     0.94259E-05 
  35770.6699     0.10069E-04 
  35810.9976     0.10738E-04 
  35851.3253     0.11434E-04 
  35891.6530     0.12157E-04 
  35931.9807     0.12909E-04 
  35972.3084     0.13688E-04 
  36012.6361     0.14496E-04 
  36052.9638     0.15333E-04 
  36093.2915     0.16200E-04 
  36133.6192     0.17097E-04 
  36173.9469     0.18025E-04 
  36214.2746     0.18984E-04 
  36254.6023     0.19974E-04 
  36294.9300     0.20997E-04 
  36335.2577     0.22053E-04 
  36375.5854     0.23143E-04 
  36415.9131     0.24267E-04 
  36456.2408     0.25425E-04 
  36496.5685     0.26618E-04 
  36536.8962     0.27848E-04 
  36577.2239     0.29114E-04 
  36617.5516     0.30417E-04 
  36657.8793     0.31758E-04 
  36698.2070     0.33138E-04 
  36738.5347     0.34557E-04 
  36778.8624     0.36015E-04 
  36819.1901     0.37515E-04 
  36859.5178     0.39055E-04 
  36899.8455     0.40638E-04 
  36940.1732     0.42264E-04 
  36980.5009     0.43934E-04 
  37020.8286     0.45647E-04 
  37061.1563     0.47407E-04 
  37101.4840     0.49212E-04 
  37141.8117     0.51064E-04 
  37182.1394     0.52964E-04 
  37222.4671     0.54912E-04 
  37262.7948     0.56911E-04 
  37303.1225     0.58959E-04 
  37343.4502     0.61059E-04 
  37383.7779     0.63211E-04 
  37424.1056     0.65417E-04 
  37464.4333     0.67677E-04 
  37504.7610     0.69992E-04 
  37545.0887     0.72364E-04 
  37585.4164     0.74793E-04 
  37625.7441     0.77280E-04 
  37666.0718     0.79827E-04 
  37706.3995     0.82435E-04 
  37746.7272     0.85105E-04 
  37787.0549     0.87837E-04 
  37827.3826     0.90634E-04 
  37867.7103     0.93496E-04 
  37908.0380     0.96424E-04 
  37948.3657     0.99421E-04 
  37988.6934     0.10249E-03 
  38029.0211     0.10562E-03 
  38069.3488     0.10883E-03 
  38109.6765     0.11211E-03 
  38150.0042     0.11547E-03 
  38190.3319     0.11890E-03 
  38230.6596     0.12241E-03 
  38270.9873     0.12600E-03 
  38311.3150     0.12967E-03 
  38351.6427     0.13342E-03 
  38391.9704     0.13725E-03 
  38432.2981     0.14117E-03 
  38472.6258     0.14518E-03 
  38512.9535     0.14927E-03 
  38553.2812     0.15346E-03 
  38593.6089     0.15774E-03 
  38633.9366     0.16211E-03 
  38674.2643     0.16657E-03 
  38714.5920     0.17114E-03 
  38754.9197     0.17580E-03 
  38795.2474     0.18057E-03 
  38835.5751     0.18544E-03 
  38875.9028     0.19041E-03 
  38916.2305     0.19550E-03 
  38956.5582     0.20069E-03 
  38996.8859     0.20599E-03 
  39037.2136     0.21141E-03 
  39077.5413     0.21694E-03 
  39117.8690     0.22260E-03 
  39158.1967     0.22837E-03 
  39198.5244     0.23427E-03 
  39238.8521     0.24029E-03 
  39279.1798     0.24645E-03 
  39319.5075     0.25273E-03 
  39359.8352     0.25915E-03 
  39400.1629     0.26570E-03 
  39440.4906     0.27239E-03 
  39480.8183     0.27923E-03 
  39521.1460     0.28621E-03 
  39561.4737     0.29334E-03 
  39601.8014     0.30062E-03 
  39642.1291     0.30805E-03 
  39682.4568     0.31564E-03 
  39722.7845     0.32339E-03 
  39763.1122     0.33130E-03 
  39803.4399     0.33939E-03 
  39843.7676     0.34764E-03 
  39884.0953     0.35606E-03 
  39924.4230     0.36467E-03 
  39964.7507     0.37345E-03 
  40005.0784     0.38242E-03 
  40045.4061     0.39158E-03 
  40085.7338     0.40094E-03 
  40126.0615     0.41049E-03 
  40166.3892     0.42024E-03 
  40206.7169     0.43019E-03 
  40247.0446     0.44036E-03 
  40287.3723     0.45074E-03 
  40327.7000     0.46134E-03 
  40368.0277     0.47216E-03 
  40408.3554     0.48321E-03 
  40448.6831     0.49449E-03 
  40489.0108     0.50601E-03 
  40529.3385     0.51778E-03 
  40569.6662     0.52979E-03 
  40609.9939     0.54206E-03 
  40650.3216     0.55458E-03 
  40690.6493     0.56737E-03 
  40730.9770     0.58043E-03 
  40771.3047     0.59377E-03 
  40811.6324     0.60739E-03 
  40851.9601     0.62130E-03 
  40892.2878     0.63550E-03 
  40932.6155     0.65000E-03 
  40972.9432     0.66481E-03 
  41013.2709     0.67994E-03 
  41053.5986     0.69539E-03 
  41093.9263     0.71116E-03 
  41134.2540     0.72728E-03 
  41174.5817     0.74373E-03 
  41214.9094     0.76054E-03 
  41255.2371     0.77770E-03 
  41295.5648     0.79523E-03 
  41335.8925     0.81314E-03 
  41376.2202     0.83143E-03 
  41416.5479     0.85012E-03 
  41456.8756     0.86920E-03 
  41497.2033     0.88870E-03 
  41537.5310     0.90861E-03 
  41577.8587     0.92895E-03 
  41618.1864     0.94973E-03 
  41658.5141     0.97097E-03 
  41698.8418     0.99266E-03 
  41739.1695     0.10148E-02 
  41779.4972     0.10375E-02 
  41819.8249     0.10606E-02 
  41860.1526     0.10842E-02 
  41900.4803     0.11084E-02 
  41940.8080     0.11331E-02 
  41981.1357     0.11583E-02 
  42021.4634     0.11840E-02 
  42061.7911     0.12104E-02 
  42102.1188     0.12373E-02 
  42142.4465     0.12648E-02 
  42182.7742     0.12929E-02 
  42223.1019     0.13216E-02 
  42263.4296     0.13510E-02 
  42303.7573     0.13810E-02 
  42344.0850     0.14117E-02 
  42384.4127     0.14430E-02 
  42424.7404     0.14751E-02 
  42465.0681     0.15079E-02 
  42505.3958     0.15414E-02 
  42545.7235     0.15757E-02 
  42586.0512     0.16107E-02 
  42626.3789     0.16465E-02 
  42666.7066     0.16831E-02 
  42707.0343     0.17206E-02 
  42747.3620     0.17589E-02 
  42787.6897     0.17980E-02 
  42828.0174     0.18381E-02 
  42868.3451     0.18791E-02 
  42908.6728     0.19210E-02 
  42949.0005     0.19638E-02 
  42989.3282     0.20077E-02 
  43029.6559     0.20525E-02 
  43069.9836     0.20984E-02 
  43110.3113     0.21453E-02 
  43150.6390     0.21934E-02 
  43190.9667     0.22425E-02 
  43231.2944     0.22928E-02 
  43271.6221     0.23443E-02 
  43311.9498     0.23969E-02 
  43352.2775     0.24508E-02 
  43392.6052     0.25060E-02 
  43432.9329     0.25624E-02 
  43473.2606     0.26202E-02 
  43513.5883     0.26794E-02 
  43553.9160     0.27400E-02 
  43594.2437     0.28020E-02 
  43634.5714     0.28655E-02 
  43674.8991     0.29305E-02 
  43715.2268     0.29970E-02 
  43755.5545     0.30652E-02 
  43795.8822     0.31350E-02 
  43836.2099     0.32065E-02 
  43876.5376     0.32798E-02 
  43916.8653     0.33548E-02 
  43957.1930     0.34316E-02 
  43997.5207     0.35104E-02 
  44037.8484     0.35910E-02 
  44078.1761     0.36737E-02 
  44118.5038     0.37584E-02 
  44158.8315     0.38452E-02 
  44199.1592     0.39342E-02 
  44239.4869     0.40254E-02 
  44279.8146     0.41188E-02 
  44320.1423     0.42146E-02 
  44360.4700     0.43129E-02 
  44400.7977     0.44136E-02 
  44441.1254     0.45168E-02 
  44481.4531     0.46227E-02 
  44521.7808     0.47313E-02 
  44562.1085     0.48427E-02 
  44602.4362     0.49570E-02 
  44642.7639     0.50742E-02 
  44683.0916     0.51944E-02 
  44723.4193     0.53177E-02 
  44763.7470     0.54443E-02 
  44804.0747     0.55742E-02 
  44844.4024     0.57075E-02 
  44884.7301     0.58443E-02 
  44925.0578     0.59848E-02 
  44965.3855     0.61289E-02 
  45005.7132     0.62770E-02 
  45046.0409     0.64290E-02 
  45086.3686     0.65850E-02 
  45126.6963     0.67453E-02 
  45167.0240     0.69099E-02 
  45207.3517     0.70791E-02 
  45247.6794     0.72528E-02 
  45288.0071     0.74313E-02 
  45328.3348     0.76147E-02 
  45368.6625     0.78032E-02 
  45408.9902     0.79969E-02 
  45449.3179     0.81961E-02 
  45489.6456     0.84008E-02 
  45529.9733     0.86112E-02 
  45570.3010     0.88277E-02 
  45610.6287     0.90502E-02 
  45650.9564     0.92791E-02 
  45691.2841     0.95146E-02 
  45731.6118     0.97569E-02 
  45771.9395     0.10006E-01 
  45812.2672     0.10263E-01 
  45852.5949     0.10527E-01 
  45892.9226     0.10798E-01 
  45933.2503     0.11078E-01 
  45973.5780     0.11366E-01 
  46013.9057     0.11663E-01 
  46054.2334     0.11968E-01 
  46094.5611     0.12283E-01 
  46134.8888     0.12607E-01 
  46175.2165     0.12941E-01 
  46215.5442     0.13285E-01 
  46255.8719     0.13640E-01 
  46296.1996     0.14005E-01 
  46336.5273     0.14382E-01 
  46376.8550     0.14771E-01 
  46417.1827     0.15172E-01 
  46457.5104     0.15585E-01 
  46497.8381     0.16012E-01 
  46538.1658     0.16452E-01 
  46578.4935     0.16907E-01 
  46618.8212     0.17376E-01 
  46659.1489     0.17860E-01 
  46699.4766     0.18360E-01 
  46739.8043     0.18876E-01 
  46780.1320     0.19409E-01 
  46820.4597     0.19960E-01 
  46860.7874     0.20530E-01 
  46901.1151     0.21118E-01 
  46941.4428     0.21727E-01 
  46981.7705     0.22356E-01 
  47022.0982     0.23006E-01 
  47062.4259     0.23679E-01 
  47102.7536     0.24376E-01 
  47143.0813     0.25096E-01 
  47183.4090     0.25842E-01 
  47223.7367     0.26615E-01 
  47264.0644     0.27414E-01 
  47304.3921     0.28243E-01 
  47344.7198     0.29101E-01 
  47385.0475     0.29991E-01 
  47425.3752     0.30913E-01 
  47465.7029     0.31869E-01 
  47506.0306     0.32861E-01 
  47546.3583     0.33890E-01 
  47586.6860     0.34958E-01 
  47627.0137     0.36066E-01 
  47667.3414     0.37216E-01 
  47707.6691     0.38411E-01 
  47747.9968     0.39653E-01 
  47788.3245     0.40943E-01 
  47828.6522     0.42284E-01 
  47868.9799     0.43678E-01 
  47909.3076     0.45129E-01 
  47949.6353     0.46638E-01 
  47989.9630     0.48209E-01 
  48030.2907     0.49845E-01 
  48070.6184     0.51549E-01 
  48110.9461     0.53324E-01 
  48151.2738     0.55174E-01 
  48191.6015     0.57103E-01 
  48231.9292     0.59116E-01 
  48272.2569     0.61216E-01 
  48312.5846     0.63408E-01 
  48352.9123     0.65698E-01 
  48393.2400     0.68090E-01 
  48433.5677     0.70591E-01 
  48473.8954     0.73206E-01 
  48514.2231     0.75942E-01 
  48554.5508     0.78805E-01 
  48594.8785     0.81803E-01 
  48635.2062     0.84945E-01 
  48675.5339     0.88238E-01 
  48715.8616     0.91692E-01 
  48756.1893     0.95316E-01 
  48796.5170     0.99121E-01 
  48836.8447     0.10312E+00 
  48877.1724     0.10732E+00 
  48917.5001     0.11174E+00 
  48957.8278     0.11639E+00 
  48998.1555     0.12129E+00 
  49038.4832     0.12645E+00 
  49078.8109     0.13189E+00 
  49119.1386     0.13763E+00 
  49159.4663     0.14369E+00 
  49199.7940     0.15010E+00 
  49240.1217     0.15688E+00 
  49280.4494     0.16405E+00 
  49320.7771     0.17165E+00 
  49361.1048     0.17970E+00 
  49401.4325     0.18825E+00 
  49441.7602     0.19733E+00 
  49482.0879     0.20698E+00 
  49522.4156     0.21726E+00 
  49562.7433     0.22820E+00 
  49603.0710     0.23987E+00 
  49643.3987     0.25233E+00 
  49683.7264     0.26565E+00 
  49724.0541     0.27990E+00 
  49764.3818     0.29517E+00 
  49804.7095     0.31155E+00 
  49845.0372     0.32916E+00 
  49885.3649     0.34810E+00 
  49925.6926     0.36851E+00 
  49966.0203     0.39054E+00 
  50006.3480     0.41435E+00 
  50046.6757     0.44014E+00 
  50087.0034     0.46812E+00 
  50127.3311     0.49852E+00 
  50167.6588     0.53163E+00 
  50207.9865     0.56777E+00 
  50248.3142     0.60729E+00 
  50288.6419     0.65061E+00 
  50328.9696     0.69821E+00 
  50369.2973     0.75064E+00 
  50409.6250     0.80854E+00 
  50449.9527     0.87265E+00 
  50490.2804     0.94384E+00 
  50530.6081     0.10231E+01 
  50570.9358     0.11116E+01 
  50611.2635     0.12108E+01 
  50651.5912     0.13222E+01 
  50691.9189     0.14476E+01 
  50732.2466     0.15893E+01 
  50772.5743     0.17497E+01 
  50812.9020     0.19315E+01 
  50853.2297     0.21376E+01 
  50893.5574     0.23712E+01 
  50933.8851     0.26351E+01 
  50974.2128     0.29314E+01 
  51014.5405     0.32604E+01 
  51054.8682     0.36194E+01 
  51095.1959     0.40006E+01 
  51135.5236     0.43887E+01 
  51175.8513     0.47591E+01 
  51216.1790     0.50781E+01 
  51256.5067     0.53065E+01 
  51296.8344     0.54089E+01 
  51337.1621     0.53641E+01 
  51377.4898     0.51736E+01 
  51417.8175     0.48626E+01 
  51458.1452     0.44718E+01 
  51498.4729     0.40458E+01 
  51538.8006     0.36237E+01 
  51579.1283     0.32342E+01 
  51619.4560     0.28949E+01 
  51659.7837     0.26143E+01 
  51700.1114     0.23937E+01 
  51740.4391     0.22306E+01 
  51780.7668     0.21204E+01 
  51821.0945     0.20585E+01 
  51861.4222     0.20412E+01 
  51901.7499     0.20655E+01 
  51942.0776     0.21284E+01 
  51982.4053     0.22255E+01 
  52022.7330     0.23502E+01 
  52063.0607     0.24946E+01 
  52103.3884     0.26505E+01 
  52143.7161     0.28117E+01 
  52184.0438     0.29736E+01 
  52224.3715     0.31322E+01 
  52264.6992     0.32809E+01 
  52305.0269     0.34095E+01 
  52345.3546     0.35051E+01 
  52385.6823     0.35555E+01 
  52426.0100     0.35528E+01 
  52466.3377     0.34946E+01 
  52506.6654     0.33829E+01 
  52546.9931     0.32232E+01 
  52587.3208     0.30246E+01 
  52627.6485     0.28029E+01 
  52667.9762     0.25835E+01 
  52708.3039     0.24033E+01 
  52748.6316     0.23071E+01 
  52788.9593     0.23401E+01 
  52829.2870     0.25373E+01 
  52869.6147     0.29125E+01 
  52909.9424     0.34539E+01 
  52950.2701     0.41241E+01 
  52990.5978     0.48657E+01 
  53030.9255     0.56082E+01 
  53071.2532     0.62790E+01 
  53111.5809     0.68178E+01 
  53151.9086     0.71895E+01 
  53192.2363     0.73892E+01 
  53232.5640     0.74376E+01 
  53272.8917     0.73691E+01 
  53313.2194     0.72205E+01 
  53353.5471     0.70226E+01 
  53393.8748     0.67974E+01 
  53434.2025     0.65600E+01 
  53474.5302     0.63207E+01 
  53514.8579     0.60878E+01 
  53555.1856     0.58685E+01 
  53595.5133     0.56687E+01 
  53635.8410     0.54925E+01 
  53676.1687     0.53423E+01 
  53716.4964     0.52204E+01 
  53756.8241     0.51294E+01 
  53797.1518     0.50729E+01 
  53837.4795     0.50541E+01 
  53877.8072     0.50746E+01 
  53918.1349     0.51332E+01 
  53958.4626     0.52256E+01 
  53998.7903     0.53439E+01 
  54039.1180     0.54754E+01 
  54079.4457     0.56010E+01 
  54119.7734     0.56949E+01 
  54160.1011     0.57289E+01 
  54200.4288     0.56794E+01 
  54240.7565     0.55343E+01 
  54281.0842     0.52953E+01 
  54321.4119     0.49762E+01 
  54361.7396     0.45972E+01 
  54402.0673     0.41799E+01 
  54442.3950     0.37457E+01 
  54482.7227     0.33183E+01 
  54523.0504     0.29266E+01 
  54563.3781     0.26046E+01 
  54603.7058     0.23858E+01 
  54644.0335     0.22950E+01 
  54684.3612     0.23420E+01 
  54724.6889     0.25202E+01 
  54765.0166     0.28087E+01 
  54805.3443     0.31759E+01 
  54845.6720     0.35838E+01 
  54885.9997     0.39940E+01 
  54926.3274     0.43742E+01 
  54966.6551     0.47029E+01 
  55006.9828     0.49707E+01 
  55047.3105     0.51784E+01 
  55087.6382     0.53328E+01 
  55127.9659     0.54417E+01 
  55168.2936     0.55103E+01 
  55208.6213     0.55413E+01 
  55248.9490     0.55358E+01 
  55289.2767     0.54966E+01 
  55329.6044     0.54301E+01 
  55369.9321     0.53449E+01 
  55410.2598     0.52500E+01 
  55450.5875     0.51523E+01 
  55490.9152     0.50563E+01 
  55531.2429     0.49655E+01 
  55571.5706     0.48843E+01 
  55611.8983     0.48175E+01 
  55652.2260     0.47687E+01 
  55692.5537     0.47386E+01 
  55732.8814     0.47244E+01 
  55773.2091     0.47213E+01 
  55813.5368     0.47241E+01 
  55853.8645     0.47261E+01 
  55894.1922     0.47179E+01 
  55934.5199     0.46873E+01 
  55974.8476     0.46210E+01 
  56015.1753     0.45089E+01 
  56055.5030     0.43485E+01 
  56095.8307     0.41451E+01 
  56136.1584     0.39103E+01 
  56176.4861     0.36569E+01 
  56216.8138     0.33963E+01 
  56257.1415     0.31379E+01 
  56297.4692     0.28913E+01 
  56337.7969     0.26676E+01 
  56378.1246     0.24789E+01 
  56418.4523     0.23357E+01 
  56458.7800     0.22438E+01 
  56499.1077     0.22040E+01 
  56539.4354     0.22122E+01 
  56579.7631     0.22610E+01 
  56620.0908     0.23407E+01 
  56660.4185     0.24406E+01 
  56700.7462     0.25499E+01 
  56741.0739     0.26588E+01 
  56781.4016     0.27597E+01 
  56821.7293     0.28482E+01 
  56862.0570     0.29230E+01 
  56902.3847     0.29844E+01 
  56942.7124     0.30329E+01 
  56983.0401     0.30676E+01 
  57023.3678     0.30872E+01 
  57063.6955     0.30906E+01 
  57104.0232     0.30791E+01 
  57144.3509     0.30556E+01 
  57184.6786     0.30241E+01 
  57225.0063     0.29876E+01 
  57265.3340     0.29478E+01 
  57305.6617     0.29061E+01 
  57345.9894     0.28638E+01 
  57386.3171     0.28233E+01 
  57426.6448     0.27861E+01 
  57466.9725     0.27529E+01 
  57507.3002     0.27222E+01 
  57547.6279     0.26922E+01 
  57587.9556     0.26611E+01 
  57628.2833     0.26277E+01 
  57668.6110     0.25910E+01 
  57708.9387     0.25490E+01 
  57749.2664     0.24988E+01 
  57789.5941     0.24376E+01 
  57829.9218     0.23641E+01 
  57870.2495     0.22796E+01 
  57910.5772     0.21873E+01 
  57950.9049     0.20911E+01 
  57991.2326     0.19944E+01 
  58031.5603     0.18995E+01 
  58071.8880     0.18086E+01 
  58112.2157     0.17238E+01 
  58152.5434     0.16480E+01 
  58192.8711     0.15834E+01 
  58233.1988     0.15314E+01 
  58273.5265     0.14923E+01 
  58313.8542     0.14651E+01 
  58354.1819     0.14483E+01 
  58394.5096     0.14402E+01 
  58434.8373     0.14391E+01 
  58475.1650     0.14430E+01 
  58515.4927     0.14496E+01 
  58555.8204     0.14566E+01 
  58596.1481     0.14625E+01 
  58636.4758     0.14663E+01 
  58676.8035     0.14679E+01 
  58717.1312     0.14674E+01 
  58757.4589     0.14644E+01 
  58797.7866     0.14583E+01 
  58838.1143     0.14486E+01 
  58878.4420     0.14354E+01 
  58918.7697     0.14192E+01 
  58959.0974     0.14010E+01 
  58999.4251     0.13816E+01 
  59039.7528     0.13612E+01 
  59080.0805     0.13399E+01 
  59120.4082     0.13180E+01 
  59160.7359     0.12960E+01 
  59201.0636     0.12745E+01 
  59241.3913     0.12535E+01 
  59281.7190     0.12328E+01 
  59322.0467     0.12117E+01 
  59362.3744     0.11900E+01 
  59402.7021     0.11675E+01 
  59443.0298     0.11442E+01 
  59483.3575     0.11201E+01 
  59523.6852     0.10948E+01 
  59564.0129     0.10679E+01 
  59604.3406     0.10393E+01 
  59644.6683     0.10092E+01 
  59684.9960     0.97816E+00 
  59725.3237     0.94704E+00 
  59765.6514     0.91646E+00 
  59805.9791     0.88681E+00 
  59846.3068     0.85838E+00 
  59886.6345     0.83149E+00 
  59926.9622     0.80652E+00 
  59967.2899     0.78388E+00 
  60007.6176     0.76374E+00 
  60047.9453     0.74606E+00 
  60088.2730     0.73059E+00 
  60128.6007     0.71703E+00 
  60168.9284     0.70513E+00 
  60209.2561     0.69469E+00 
  60249.5838     0.68543E+00 
  60289.9115     0.67698E+00 
  60330.2392     0.66891E+00 
  60370.5669     0.66089E+00 
  60410.8946     0.65273E+00 
  60451.2223     0.64441E+00 
  60491.5500     0.63594E+00 
  60531.8777     0.62727E+00 
  60572.2054     0.61827E+00 
  60612.5331     0.60882E+00 
  60652.8608     0.59890E+00 
  60693.1885     0.58866E+00 
  60733.5162     0.57824E+00 
  60773.8439     0.56776E+00 
  60814.1716     0.55722E+00 
  60854.4993     0.54662E+00 
  60894.8270     0.53598E+00 
  60935.1547     0.52538E+00 
  60975.4824     0.51492E+00 
  61015.8101     0.50462E+00 
  61056.1378     0.49442E+00 
  61096.4655     0.48423E+00 
  61136.7932     0.47399E+00 
  61177.1209     0.46369E+00 
  61217.4486     0.45338E+00 
  61257.7763     0.44309E+00 
  61298.1040     0.43279E+00 
  61338.4317     0.42246E+00 
  61378.7594     0.41206E+00 
  61419.0871     0.40166E+00 
  61459.4148     0.39134E+00 
  61499.7425     0.38124E+00 
  61540.0702     0.37143E+00 
  61580.3979     0.36194E+00 
  61620.7256     0.35279E+00 
  61661.0533     0.34402E+00 
  61701.3810     0.33566E+00 
  61741.7087     0.32777E+00 
  61782.0364     0.32034E+00 
  61822.3641     0.31335E+00 
  61862.6918     0.30675E+00 
  61903.0195     0.30048E+00 
  61943.3472     0.29451E+00 
  61983.6749     0.28881E+00 
  62024.0026     0.28337E+00 
  62064.3303     0.27811E+00 
  62104.6580     0.27298E+00 
  62144.9857     0.26793E+00 
  62185.3134     0.26293E+00 
  62225.6411     0.25800E+00 
  62265.9688     0.25312E+00 
  62306.2965     0.24830E+00 
  62346.6242     0.24351E+00 
  62386.9519     0.23873E+00 
  62427.2796     0.23396E+00 
  62467.6073     0.22923E+00 
  62507.9350     0.22456E+00 
  62548.2627     0.21995E+00 
  62588.5904     0.21540E+00 
  62628.9181     0.21090E+00 
  62669.2458     0.20646E+00 
  62709.5735     0.20209E+00 
  62749.9012     0.19779E+00 
  62790.2289     0.19357E+00 
  62830.5566     0.18943E+00 
  62870.8843     0.18534E+00 
  62911.2120     0.18130E+00 
  62951.5397     0.17731E+00 
  62991.8674     0.17338E+00 
  63032.1951     0.16952E+00 
  63072.5228     0.16573E+00 
  63112.8505     0.16200E+00 
  63153.1782     0.15834E+00 
  63193.5059     0.15474E+00 
  63233.8336     0.15122E+00 
  63274.1613     0.14779E+00 
  63314.4890     0.14447E+00 
  63354.8167     0.14124E+00 
  63395.1444     0.13811E+00 
  63435.4721     0.13507E+00 
  63475.7998     0.13213E+00 
  63516.1275     0.12930E+00 
  63556.4552     0.12656E+00 
  63596.7829     0.12391E+00 
  63637.1106     0.12135E+00 
  63677.4383     0.11886E+00 
  63717.7660     0.11644E+00 
  63758.0937     0.11408E+00 
  63798.4214     0.11179E+00 
  63838.7491     0.10956E+00 
  63879.0768     0.10737E+00 
  63919.4045     0.10522E+00 
  63959.7322     0.10311E+00 
  64000.0599     0.10104E+00 
  64040.3876     0.99006E-01 
  64080.7153     0.97014E-01 
  64121.0430     0.95055E-01 
  64161.3707     0.93129E-01 
  64201.6984     0.91236E-01 
  64242.0261     0.89377E-01 
  64282.3538     0.87555E-01 
  64322.6815     0.85769E-01 
  64363.0092     0.84018E-01 
  64403.3369     0.82299E-01 
  64443.6646     0.80613E-01 
  64483.9923     0.78962E-01 
  64524.3200     0.77344E-01 
  64564.6477     0.75761E-01 
  64604.9754     0.74210E-01 
  64645.3031     0.72689E-01 
  64685.6308     0.71198E-01 
  64725.9585     0.69737E-01 
  64766.2862     0.68306E-01 
  64806.6139     0.66908E-01 
  64846.9416     0.65539E-01 
  64887.2693     0.64201E-01 
  64927.5970     0.62891E-01 
  64967.9247     0.61611E-01 
  65008.2524     0.60362E-01 
  65048.5801     0.59143E-01 
  65088.9078     0.57955E-01 
  65129.2355     0.56796E-01 
  65169.5632     0.55666E-01 
  65209.8909     0.54564E-01 
  65250.2186     0.53489E-01 
  65290.5463     0.52442E-01 
  65330.8740     0.51421E-01 
  65371.2017     0.50424E-01 
  65411.5294     0.49451E-01 
  65451.8571     0.48499E-01 
  65492.1848     0.47569E-01 
  65532.5125     0.46660E-01 
  65572.8402     0.45771E-01 
  65613.1679     0.44900E-01 
  65653.4956     0.44048E-01 
  65693.8233     0.43212E-01 
  65734.1510     0.42393E-01 
  65774.4787     0.41591E-01 
  65814.8064     0.40805E-01 
  65855.1341     0.40035E-01 
  65895.4618     0.39280E-01 
  65935.7895     0.38541E-01 
  65976.1172     0.37815E-01 
  66016.4449     0.37105E-01 
  66056.7726     0.36409E-01 
  66097.1003     0.35728E-01 
  66137.4280     0.35060E-01 
  66177.7557     0.34406E-01 
  66218.0834     0.33765E-01 
  66258.4111     0.33137E-01 
  66298.7388     0.32522E-01 
  66339.0665     0.31920E-01 
  66379.3942     0.31330E-01 
  66419.7219     0.30752E-01 
  66460.0496     0.30186E-01 
  66500.3773     0.29632E-01 
  66540.7050     0.29089E-01 
  66581.0327     0.28558E-01 
  66621.3604     0.28037E-01 
  66661.6881     0.27528E-01 
  66702.0158     0.27028E-01 
  66742.3435     0.26540E-01 
  66782.6712     0.26062E-01 
  66822.9989     0.25593E-01 
  66863.3266     0.25135E-01 
  66903.6543     0.24687E-01 
  66943.9820     0.24247E-01 
  66984.3097     0.23817E-01 
  67024.6374     0.23396E-01 
  67064.9651     0.22983E-01 
  67105.2928     0.22579E-01 
  67145.6205     0.22182E-01 
  67185.9482     0.21794E-01 
  67226.2759     0.21413E-01 
  67266.6036     0.21040E-01 
  67306.9313     0.20674E-01 
  67347.2590     0.20315E-01 
  67387.5867     0.19963E-01 
  67427.9144     0.19618E-01 
  67468.2421     0.19279E-01 
  67508.5698     0.18947E-01 
  67548.8975     0.18621E-01 
  67589.2252     0.18301E-01 
  67629.5529     0.17987E-01 
  67669.8806     0.17679E-01 
  67710.2083     0.17376E-01 
  67750.5360     0.17080E-01 
  67790.8637     0.16788E-01 
  67831.1914     0.16503E-01 
  67871.5191     0.16222E-01 
  67911.8468     0.15947E-01 
  67952.1745     0.15677E-01 
  67992.5022     0.15412E-01 
  68032.8299     0.15151E-01 
  68073.1576     0.14896E-01 
  68113.4853     0.14645E-01 
  68153.8130     0.14399E-01 
  68194.1407     0.14157E-01 
  68234.4684     0.13920E-01 
  68274.7961     0.13687E-01 
  68315.1238     0.13458E-01 
  68355.4515     0.13233E-01 
  68395.7792     0.13013E-01 
  68436.1069     0.12796E-01 
  68476.4346     0.12583E-01 
  68516.7623     0.12374E-01 
  68557.0900     0.12169E-01 
  68597.4177     0.11968E-01 
  68637.7454     0.11770E-01 
  68678.0731     0.11575E-01 
  68718.4008     0.11384E-01 
  68758.7285     0.11196E-01 
  68799.0562     0.11012E-01 
  68839.3839     0.10830E-01 
  68879.7116     0.10652E-01 
  68920.0393     0.10477E-01 
  68960.3670     0.10304E-01 
  69000.6947     0.10135E-01 
  69041.0224     0.99685E-02 
  69081.3501     0.98048E-02 
  69121.6778     0.96438E-02 
  69162.0055     0.94855E-02 
  69202.3332     0.93298E-02 
  69242.6609     0.91766E-02 
  69282.9886     0.90260E-02 
  69323.3163     0.88779E-02 
  69363.6440     0.87322E-02 
  69403.9717     0.85888E-02 
  69444.2994     0.84478E-02 
  69484.6271     0.83091E-02 
  69524.9548     0.81726E-02 
  69565.2825     0.80383E-02 
  69605.6102     0.79061E-02 
  69645.9379     0.77761E-02 
  69686.2656     0.76481E-02 
  69726.5933     0.75221E-02 
  69766.9210     0.73982E-02 
  69807.2487     0.72762E-02 
  69847.5764     0.71561E-02 
  69887.9041     0.70379E-02 
  69928.2318     0.69216E-02 
  69968.5595     0.68071E-02 
  70008.8872     0.66943E-02 
  70049.2149     0.65833E-02 
  70089.5426     0.64740E-02 
  70129.8703     0.63664E-02 
  70170.1980     0.62604E-02 
  70210.5257     0.61561E-02 
  70250.8534     0.60533E-02 
  70291.1811     0.59521E-02 
  70331.5088     0.58525E-02 
  70371.8365     0.57543E-02 
  70412.1642     0.56576E-02 
  70452.4919     0.55624E-02 
  70492.8196     0.54686E-02 
  70533.1473     0.53761E-02 
  70573.4750     0.52851E-02 
  70613.8027     0.51954E-02 
  70654.1304     0.51070E-02 
  70694.4581     0.50199E-02 
  70734.7858     0.49341E-02 
  70775.1135     0.48496E-02 
  70815.4412     0.47663E-02 
  70855.7689     0.46841E-02 
  70896.0966     0.46032E-02 
  70936.4243     0.45235E-02 
  70976.7520     0.44449E-02 
  71017.0797     0.43674E-02 
  71057.4074     0.42911E-02 
  71097.7351     0.42158E-02 
  71138.0628     0.41416E-02 
  71178.3905     0.40685E-02 
  71218.7182     0.39965E-02 
  71259.0459     0.39254E-02 
  71299.3736     0.38554E-02 
  71339.7013     0.37863E-02 
  71380.0290     0.37182E-02 
  71420.3567     0.36511E-02 
  71460.6844     0.35850E-02 
  71501.0121     0.35197E-02 
  71541.3398     0.34554E-02 
  71581.6675     0.33920E-02 
  71621.9952     0.33295E-02 
  71662.3229     0.32678E-02 
  71702.6506     0.32070E-02 
  71742.9783     0.31471E-02 
  71783.3060     0.30880E-02 
  71823.6337     0.30297E-02 
  71863.9614     0.29723E-02 
  71904.2891     0.29156E-02 
  71944.6168     0.28597E-02 
  71984.9445     0.28046E-02 
  72025.2722     0.27503E-02 
  72065.5999     0.26967E-02 
  72105.9276     0.26439E-02 
  72146.2553     0.25918E-02 
  72186.5830     0.25404E-02 
  72226.9107     0.24897E-02 
  72267.2384     0.24398E-02 
  72307.5661     0.23905E-02 
  72347.8938     0.23419E-02 
  72388.2215     0.22940E-02 
  72428.5492     0.22468E-02 
  72468.8769     0.22002E-02 
  72509.2046     0.21543E-02 
  72549.5323     0.21090E-02 
  72589.8600     0.20644E-02 
