  32262.1600     0.49647E-06 
  32302.4877     0.47612E-06 
  32342.8154     0.45617E-06 
  32383.1431     0.43660E-06 
  32423.4708     0.41742E-06 
  32463.7985     0.39863E-06 
  32504.1262     0.38025E-06 
  32544.4539     0.36226E-06 
  32584.7816     0.34468E-06 
  32625.1093     0.32751E-06 
  32665.4370     0.31075E-06 
  32705.7647     0.29440E-06 
  32746.0924     0.27847E-06 
  32786.4201     0.26297E-06 
  32826.7478     0.24789E-06 
  32867.0755     0.23325E-06 
  32907.4032     0.21904E-06 
  32947.7309     0.20527E-06 
  32988.0586     0.19195E-06 
  33028.3863     0.17908E-06 
  33068.7140     0.16666E-06 
  33109.0417     0.15470E-06 
  33149.3694     0.14320E-06 
  33189.6971     0.13217E-06 
  33230.0248     0.12162E-06 
  33270.3525     0.11155E-06 
  33310.6802     0.10197E-06 
  33351.0079     0.92880E-07 
  33391.3356     0.84287E-07 
  33431.6633     0.76199E-07 
  33471.9910     0.68620E-07 
  33512.3187     0.61559E-07 
  33552.6464     0.55021E-07 
  33592.9741     0.49013E-07 
  33633.3018     0.43542E-07 
  33673.6295     0.38614E-07 
  33713.9572     0.34238E-07 
  33754.2849     0.30421E-07 
  33794.6126     0.27169E-07 
  33834.9403     0.24492E-07 
  33875.2680     0.22395E-07 
  33915.5957     0.20889E-07 
  33955.9234     0.19980E-07 
  33996.2511     0.19677E-07 
  34036.5788     0.19989E-07 
  34076.9065     0.20924E-07 
  34117.2342     0.22492E-07 
  34157.5619     0.24702E-07 
  34197.8896     0.27562E-07 
  34238.2173     0.31083E-07 
  34278.5450     0.35274E-07 
  34318.8727     0.40146E-07 
  34359.2004     0.45708E-07 
  34399.5281     0.51971E-07 
  34439.8558     0.58945E-07 
  34480.1835     0.66641E-07 
  34520.5112     0.75071E-07 
  34560.8389     0.84245E-07 
  34601.1666     0.94175E-07 
  34641.4943     0.10487E-06 
  34681.8220     0.11635E-06 
  34722.1497     0.12862E-06 
  34762.4774     0.14170E-06 
  34802.8051     0.15559E-06 
  34843.1328     0.17031E-06 
  34883.4605     0.18588E-06 
  34923.7882     0.20230E-06 
  34964.1159     0.21960E-06 
  35004.4436     0.23778E-06 
  35044.7713     0.25686E-06 
  35085.0990     0.27685E-06 
  35125.4267     0.29778E-06 
  35165.7544     0.31965E-06 
  35206.0821     0.34248E-06 
  35246.4098     0.36628E-06 
  35286.7375     0.39108E-06 
  35327.0652     0.41689E-06 
  35367.3929     0.44372E-06 
  35407.7206     0.47160E-06 
  35448.0483     0.50054E-06 
  35488.3760     0.53056E-06 
  35528.7037     0.56167E-06 
  35569.0314     0.59390E-06 
  35609.3591     0.62727E-06 
  35649.6868     0.66179E-06 
  35690.0145     0.69749E-06 
  35730.3422     0.73438E-06 
  35770.6699     0.77248E-06 
  35810.9976     0.81183E-06 
  35851.3253     0.85243E-06 
  35891.6530     0.89431E-06 
  35931.9807     0.93749E-06 
  35972.3084     0.98200E-06 
  36012.6361     0.10279E-05 
  36052.9638     0.10751E-05 
  36093.2915     0.11237E-05 
  36133.6192     0.11738E-05 
  36173.9469     0.12253E-05 
  36214.2746     0.12782E-05 
  36254.6023     0.13327E-05 
  36294.9300     0.13887E-05 
  36335.2577     0.14462E-05 
  36375.5854     0.15053E-05 
  36415.9131     0.15661E-05 
  36456.2408     0.16285E-05 
  36496.5685     0.16925E-05 
  36536.8962     0.17582E-05 
  36577.2239     0.18257E-05 
  36617.5516     0.18949E-05 
  36657.8793     0.19659E-05 
  36698.2070     0.20388E-05 
  36738.5347     0.21135E-05 
  36778.8624     0.21901E-05 
  36819.1901     0.22686E-05 
  36859.5178     0.23491E-05 
  36899.8455     0.24316E-05 
  36940.1732     0.25161E-05 
  36980.5009     0.26027E-05 
  37020.8286     0.26914E-05 
  37061.1563     0.27823E-05 
  37101.4840     0.28753E-05 
  37141.8117     0.29706E-05 
  37182.1394     0.30681E-05 
  37222.4671     0.31680E-05 
  37262.7948     0.32703E-05 
  37303.1225     0.33749E-05 
  37343.4502     0.34820E-05 
  37383.7779     0.35916E-05 
  37424.1056     0.37037E-05 
  37464.4333     0.38184E-05 
  37504.7610     0.39358E-05 
  37545.0887     0.40559E-05 
  37585.4164     0.41787E-05 
  37625.7441     0.43043E-05 
  37666.0718     0.44327E-05 
  37706.3995     0.45641E-05 
  37746.7272     0.46984E-05 
  37787.0549     0.48357E-05 
  37827.3826     0.49761E-05 
  37867.7103     0.51196E-05 
  37908.0380     0.52664E-05 
  37948.3657     0.54163E-05 
  37988.6934     0.55697E-05 
  38029.0211     0.57263E-05 
  38069.3488     0.58865E-05 
  38109.6765     0.60501E-05 
  38150.0042     0.62174E-05 
  38190.3319     0.63883E-05 
  38230.6596     0.65629E-05 
  38270.9873     0.67413E-05 
  38311.3150     0.69237E-05 
  38351.6427     0.71099E-05 
  38391.9704     0.73002E-05 
  38432.2981     0.74946E-05 
  38472.6258     0.76932E-05 
  38512.9535     0.78961E-05 
  38553.2812     0.81033E-05 
  38593.6089     0.83150E-05 
  38633.9366     0.85312E-05 
  38674.2643     0.87521E-05 
  38714.5920     0.89777E-05 
  38754.9197     0.92081E-05 
  38795.2474     0.94434E-05 
  38835.5751     0.96837E-05 
  38875.9028     0.99291E-05 
  38916.2305     0.10180E-04 
  38956.5582     0.10436E-04 
  38996.8859     0.10697E-04 
  39037.2136     0.10964E-04 
  39077.5413     0.11237E-04 
  39117.8690     0.11515E-04 
  39158.1967     0.11799E-04 
  39198.5244     0.12090E-04 
  39238.8521     0.12386E-04 
  39279.1798     0.12689E-04 
  39319.5075     0.12998E-04 
  39359.8352     0.13314E-04 
  39400.1629     0.13636E-04 
  39440.4906     0.13965E-04 
  39480.8183     0.14301E-04 
  39521.1460     0.14644E-04 
  39561.4737     0.14994E-04 
  39601.8014     0.15352E-04 
  39642.1291     0.15717E-04 
  39682.4568     0.16090E-04 
  39722.7845     0.16471E-04 
  39763.1122     0.16860E-04 
  39803.4399     0.17257E-04 
  39843.7676     0.17663E-04 
  39884.0953     0.18077E-04 
  39924.4230     0.18499E-04 
  39964.7507     0.18931E-04 
  40005.0784     0.19372E-04 
  40045.4061     0.19822E-04 
  40085.7338     0.20282E-04 
  40126.0615     0.20751E-04 
  40166.3892     0.21230E-04 
  40206.7169     0.21720E-04 
  40247.0446     0.22219E-04 
  40287.3723     0.22730E-04 
  40327.7000     0.23251E-04 
  40368.0277     0.23783E-04 
  40408.3554     0.24327E-04 
  40448.6831     0.24882E-04 
  40489.0108     0.25449E-04 
  40529.3385     0.26028E-04 
  40569.6662     0.26619E-04 
  40609.9939     0.27223E-04 
  40650.3216     0.27840E-04 
  40690.6493     0.28470E-04 
  40730.9770     0.29113E-04 
  40771.3047     0.29771E-04 
  40811.6324     0.30442E-04 
  40851.9601     0.31128E-04 
  40892.2878     0.31828E-04 
  40932.6155     0.32544E-04 
  40972.9432     0.33275E-04 
  41013.2709     0.34021E-04 
  41053.5986     0.34784E-04 
  41093.9263     0.35563E-04 
  41134.2540     0.36360E-04 
  41174.5817     0.37173E-04 
  41214.9094     0.38004E-04 
  41255.2371     0.38853E-04 
  41295.5648     0.39721E-04 
  41335.8925     0.40608E-04 
  41376.2202     0.41513E-04 
  41416.5479     0.42439E-04 
  41456.8756     0.43385E-04 
  41497.2033     0.44352E-04 
  41537.5310     0.45340E-04 
  41577.8587     0.46350E-04 
  41618.1864     0.47382E-04 
  41658.5141     0.48436E-04 
  41698.8418     0.49515E-04 
  41739.1695     0.50617E-04 
  41779.4972     0.51743E-04 
  41819.8249     0.52895E-04 
  41860.1526     0.54072E-04 
  41900.4803     0.55275E-04 
  41940.8080     0.56506E-04 
  41981.1357     0.57764E-04 
  42021.4634     0.59050E-04 
  42061.7911     0.60365E-04 
  42102.1188     0.61710E-04 
  42142.4465     0.63085E-04 
  42182.7742     0.64492E-04 
  42223.1019     0.65930E-04 
  42263.4296     0.67401E-04 
  42303.7573     0.68906E-04 
  42344.0850     0.70445E-04 
  42384.4127     0.72019E-04 
  42424.7404     0.73629E-04 
  42465.0681     0.75277E-04 
  42505.3958     0.76962E-04 
  42545.7235     0.78687E-04 
  42586.0512     0.80451E-04 
  42626.3789     0.82256E-04 
  42666.7066     0.84104E-04 
  42707.0343     0.85994E-04 
  42747.3620     0.87929E-04 
  42787.6897     0.89909E-04 
  42828.0174     0.91936E-04 
  42868.3451     0.94010E-04 
  42908.6728     0.96134E-04 
  42949.0005     0.98308E-04 
  42989.3282     0.10053E-03 
  43029.6559     0.10281E-03 
  43069.9836     0.10514E-03 
  43110.3113     0.10753E-03 
  43150.6390     0.10998E-03 
  43190.9667     0.11249E-03 
  43231.2944     0.11505E-03 
  43271.6221     0.11768E-03 
  43311.9498     0.12037E-03 
  43352.2775     0.12313E-03 
  43392.6052     0.12596E-03 
  43432.9329     0.12885E-03 
  43473.2606     0.13182E-03 
  43513.5883     0.13486E-03 
  43553.9160     0.13797E-03 
  43594.2437     0.14116E-03 
  43634.5714     0.14443E-03 
  43674.8991     0.14779E-03 
  43715.2268     0.15123E-03 
  43755.5545     0.15475E-03 
  43795.8822     0.15836E-03 
  43836.2099     0.16207E-03 
  43876.5376     0.16587E-03 
  43916.8653     0.16976E-03 
  43957.1930     0.17376E-03 
  43997.5207     0.17786E-03 
  44037.8484     0.18206E-03 
  44078.1761     0.18638E-03 
  44118.5038     0.19080E-03 
  44158.8315     0.19534E-03 
  44199.1592     0.20000E-03 
  44239.4869     0.20478E-03 
  44279.8146     0.20969E-03 
  44320.1423     0.21473E-03 
  44360.4700     0.21990E-03 
  44400.7977     0.22521E-03 
  44441.1254     0.23066E-03 
  44481.4531     0.23626E-03 
  44521.7808     0.24201E-03 
  44562.1085     0.24792E-03 
  44602.4362     0.25398E-03 
  44642.7639     0.26022E-03 
  44683.0916     0.26662E-03 
  44723.4193     0.27320E-03 
  44763.7470     0.27996E-03 
  44804.0747     0.28691E-03 
  44844.4024     0.29405E-03 
  44884.7301     0.30140E-03 
  44925.0578     0.30895E-03 
  44965.3855     0.31671E-03 
  45005.7132     0.32469E-03 
  45046.0409     0.33291E-03 
  45086.3686     0.34136E-03 
  45126.6963     0.35005E-03 
  45167.0240     0.35899E-03 
  45207.3517     0.36819E-03 
  45247.6794     0.37766E-03 
  45288.0071     0.38741E-03 
  45328.3348     0.39745E-03 
  45368.6625     0.40778E-03 
  45408.9902     0.41843E-03 
  45449.3179     0.42939E-03 
  45489.6456     0.44068E-03 
  45529.9733     0.45231E-03 
  45570.3010     0.46430E-03 
  45610.6287     0.47665E-03 
  45650.9564     0.48938E-03 
  45691.2841     0.50251E-03 
  45731.6118     0.51604E-03 
  45771.9395     0.52999E-03 
  45812.2672     0.54439E-03 
  45852.5949     0.55923E-03 
  45892.9226     0.57455E-03 
  45933.2503     0.59036E-03 
  45973.5780     0.60668E-03 
  46013.9057     0.62352E-03 
  46054.2334     0.64091E-03 
  46094.5611     0.65887E-03 
  46134.8888     0.67741E-03 
  46175.2165     0.69658E-03 
  46215.5442     0.71638E-03 
  46255.8719     0.73684E-03 
  46296.1996     0.75799E-03 
  46336.5273     0.77986E-03 
  46376.8550     0.80248E-03 
  46417.1827     0.82587E-03 
  46457.5104     0.85007E-03 
  46497.8381     0.87512E-03 
  46538.1658     0.90104E-03 
  46578.4935     0.92787E-03 
  46618.8212     0.95566E-03 
  46659.1489     0.98445E-03 
  46699.4766     0.10143E-02 
  46739.8043     0.10452E-02 
  46780.1320     0.10772E-02 
  46820.4597     0.11104E-02 
  46860.7874     0.11449E-02 
  46901.1151     0.11806E-02 
  46941.4428     0.12177E-02 
  46981.7705     0.12562E-02 
  47022.0982     0.12961E-02 
  47062.4259     0.13376E-02 
  47102.7536     0.13807E-02 
  47143.0813     0.14255E-02 
  47183.4090     0.14721E-02 
  47223.7367     0.15205E-02 
  47264.0644     0.15709E-02 
  47304.3921     0.16233E-02 
  47344.7198     0.16779E-02 
  47385.0475     0.17347E-02 
  47425.3752     0.17938E-02 
  47465.7029     0.18555E-02 
  47506.0306     0.19197E-02 
  47546.3583     0.19868E-02 
  47586.6860     0.20567E-02 
  47627.0137     0.21296E-02 
  47667.3414     0.22058E-02 
  47707.6691     0.22853E-02 
  47747.9968     0.23685E-02 
  47788.3245     0.24554E-02 
  47828.6522     0.25463E-02 
  47868.9799     0.26414E-02 
  47909.3076     0.27410E-02 
  47949.6353     0.28452E-02 
  47989.9630     0.29545E-02 
  48030.2907     0.30691E-02 
  48070.6184     0.31893E-02 
  48110.9461     0.33155E-02 
  48151.2738     0.34480E-02 
  48191.6015     0.35872E-02 
  48231.9292     0.37336E-02 
  48272.2569     0.38877E-02 
  48312.5846     0.40499E-02 
  48352.9123     0.42208E-02 
  48393.2400     0.44009E-02 
  48433.5677     0.45909E-02 
  48473.8954     0.47916E-02 
  48514.2231     0.50036E-02 
  48554.5508     0.52278E-02 
  48594.8785     0.54651E-02 
  48635.2062     0.57164E-02 
  48675.5339     0.59828E-02 
  48715.8616     0.62655E-02 
  48756.1893     0.65658E-02 
  48796.5170     0.68850E-02 
  48836.8447     0.72247E-02 
  48877.1724     0.75867E-02 
  48917.5001     0.79727E-02 
  48957.8278     0.83850E-02 
  48998.1555     0.88257E-02 
  49038.4832     0.92974E-02 
  49078.8109     0.98031E-02 
  49119.1386     0.10346E-01 
  49159.4663     0.10929E-01 
  49199.7940     0.11557E-01 
  49240.1217     0.12234E-01 
  49280.4494     0.12966E-01 
  49320.7771     0.13757E-01 
  49361.1048     0.14614E-01 
  49401.4325     0.15545E-01 
  49441.7602     0.16557E-01 
  49482.0879     0.17661E-01 
  49522.4156     0.18867E-01 
  49562.7433     0.20187E-01 
  49603.0710     0.21636E-01 
  49643.3987     0.23230E-01 
  49683.7264     0.24986E-01 
  49724.0541     0.26928E-01 
  49764.3818     0.29079E-01 
  49804.7095     0.31466E-01 
  49845.0372     0.34122E-01 
  49885.3649     0.37082E-01 
  49925.6926     0.40383E-01 
  49966.0203     0.44069E-01 
  50006.3480     0.48179E-01 
  50046.6757     0.52754E-01 
  50087.0034     0.57825E-01 
  50127.3311     0.63407E-01 
  50167.6588     0.69492E-01 
  50207.9865     0.76037E-01 
  50248.3142     0.82953E-01 
  50288.6419     0.90105E-01 
  50328.9696     0.97307E-01 
  50369.2973     0.10433E+00 
  50409.6250     0.11091E+00 
  50449.9527     0.11679E+00 
  50490.2804     0.12171E+00 
  50530.6081     0.12544E+00 
  50570.9358     0.12781E+00 
  50611.2635     0.12870E+00 
  50651.5912     0.12809E+00 
  50691.9189     0.12602E+00 
  50732.2466     0.12262E+00 
  50772.5743     0.11810E+00 
  50812.9020     0.11273E+00 
  50853.2297     0.10679E+00 
  50893.5574     0.10061E+00 
  50933.8851     0.94485E-01 
  50974.2128     0.88673E-01 
  51014.5405     0.83376E-01 
  51054.8682     0.78725E-01 
  51095.1959     0.74780E-01 
  51135.5236     0.71535E-01 
  51175.8513     0.68935E-01 
  51216.1790     0.66893E-01 
  51256.5067     0.65309E-01 
  51296.8344     0.64090E-01 
  51337.1621     0.63166E-01 
  51377.4898     0.62496E-01 
  51417.8175     0.62081E-01 
  51458.1452     0.61958E-01 
  51498.4729     0.62199E-01 
  51538.8006     0.62900E-01 
  51579.1283     0.64174E-01 
  51619.4560     0.66137E-01 
  51659.7837     0.68900E-01 
  51700.1114     0.72561E-01 
  51740.4391     0.77197E-01 
  51780.7668     0.82864E-01 
  51821.0945     0.89593E-01 
  51861.4222     0.97388E-01 
  51901.7499     0.10623E+00 
  51942.0776     0.11605E+00 
  51982.4053     0.12677E+00 
  52022.7330     0.13825E+00 
  52063.0607     0.15030E+00 
  52103.3884     0.16266E+00 
  52143.7161     0.17505E+00 
  52184.0438     0.18711E+00 
  52224.3715     0.19846E+00 
  52264.6992     0.20873E+00 
  52305.0269     0.21757E+00 
  52345.3546     0.22467E+00 
  52385.6823     0.22980E+00 
  52426.0100     0.23282E+00 
  52466.3377     0.23370E+00 
  52506.6654     0.23250E+00 
  52546.9931     0.22938E+00 
  52587.3208     0.22459E+00 
  52627.6485     0.21845E+00 
  52667.9762     0.21132E+00 
  52708.3039     0.20355E+00 
  52748.6316     0.19548E+00 
  52788.9593     0.18743E+00 
  52829.2870     0.17962E+00 
  52869.6147     0.17221E+00 
  52909.9424     0.16530E+00 
  52950.2701     0.15889E+00 
  52990.5978     0.15298E+00 
  53030.9255     0.14749E+00 
  53071.2532     0.14236E+00 
  53111.5809     0.13754E+00 
  53151.9086     0.13296E+00 
  53192.2363     0.12862E+00 
  53232.5640     0.12453E+00 
  53272.8917     0.12074E+00 
  53313.2194     0.11730E+00 
  53353.5471     0.11431E+00 
  53393.8748     0.11187E+00 
  53434.2025     0.11006E+00 
  53474.5302     0.10899E+00 
  53514.8579     0.10872E+00 
  53555.1856     0.10930E+00 
  53595.5133     0.11078E+00 
  53635.8410     0.11315E+00 
  53676.1687     0.11641E+00 
  53716.4964     0.12051E+00 
  53756.8241     0.12538E+00 
  53797.1518     0.13095E+00 
  53837.4795     0.13709E+00 
  53877.8072     0.14366E+00 
  53918.1349     0.15051E+00 
  53958.4626     0.15743E+00 
  53998.7903     0.16423E+00 
  54039.1180     0.17070E+00 
  54079.4457     0.17662E+00 
  54119.7734     0.18182E+00 
  54160.1011     0.18613E+00 
  54200.4288     0.18943E+00 
  54240.7565     0.19165E+00 
  54281.0842     0.19278E+00 
  54321.4119     0.19284E+00 
  54361.7396     0.19190E+00 
  54402.0673     0.19007E+00 
  54442.3950     0.18748E+00 
  54482.7227     0.18427E+00 
  54523.0504     0.18061E+00 
  54563.3781     0.17664E+00 
  54603.7058     0.17248E+00 
  54644.0335     0.16823E+00 
  54684.3612     0.16397E+00 
  54724.6889     0.15974E+00 
  54765.0166     0.15558E+00 
  54805.3443     0.15149E+00 
  54845.6720     0.14747E+00 
  54885.9997     0.14353E+00 
  54926.3274     0.13965E+00 
  54966.6551     0.13585E+00 
  55006.9828     0.13214E+00 
  55047.3105     0.12855E+00 
  55087.6382     0.12510E+00 
  55127.9659     0.12183E+00 
  55168.2936     0.11878E+00 
  55208.6213     0.11600E+00 
  55248.9490     0.11351E+00 
  55289.2767     0.11137E+00 
  55329.6044     0.10958E+00 
  55369.9321     0.10817E+00 
  55410.2598     0.10715E+00 
  55450.5875     0.10652E+00 
  55490.9152     0.10626E+00 
  55531.2429     0.10635E+00 
  55571.5706     0.10676E+00 
  55611.8983     0.10746E+00 
  55652.2260     0.10839E+00 
  55692.5537     0.10949E+00 
  55732.8814     0.11072E+00 
  55773.2091     0.11200E+00 
  55813.5368     0.11326E+00 
  55853.8645     0.11444E+00 
  55894.1922     0.11547E+00 
  55934.5199     0.11630E+00 
  55974.8476     0.11688E+00 
  56015.1753     0.11719E+00 
  56055.5030     0.11720E+00 
  56095.8307     0.11690E+00 
  56136.1584     0.11631E+00 
  56176.4861     0.11545E+00 
  56216.8138     0.11433E+00 
  56257.1415     0.11298E+00 
  56297.4692     0.11146E+00 
  56337.7969     0.10978E+00 
  56378.1246     0.10799E+00 
  56418.4523     0.10611E+00 
  56458.7800     0.10417E+00 
  56499.1077     0.10218E+00 
  56539.4354     0.10017E+00 
  56579.7631     0.98140E-01 
  56620.0908     0.96102E-01 
  56660.4185     0.94063E-01 
  56700.7462     0.92030E-01 
  56741.0739     0.90009E-01 
  56781.4016     0.88009E-01 
  56821.7293     0.86040E-01 
  56862.0570     0.84111E-01 
  56902.3847     0.82234E-01 
  56942.7124     0.80422E-01 
  56983.0401     0.78684E-01 
  57023.3678     0.77033E-01 
  57063.6955     0.75476E-01 
  57104.0232     0.74022E-01 
  57144.3509     0.72675E-01 
  57184.6786     0.71438E-01 
  57225.0063     0.70312E-01 
  57265.3340     0.69294E-01 
  57305.6617     0.68380E-01 
  57345.9894     0.67562E-01 
  57386.3171     0.66831E-01 
  57426.6448     0.66176E-01 
  57466.9725     0.65585E-01 
  57507.3002     0.65043E-01 
  57547.6279     0.64537E-01 
  57587.9556     0.64051E-01 
  57628.2833     0.63571E-01 
  57668.6110     0.63083E-01 
  57708.9387     0.62575E-01 
  57749.2664     0.62037E-01 
  57789.5941     0.61460E-01 
  57829.9218     0.60839E-01 
  57870.2495     0.60172E-01 
  57910.5772     0.59457E-01 
  57950.9049     0.58695E-01 
  57991.2326     0.57891E-01 
  58031.5603     0.57048E-01 
  58071.8880     0.56171E-01 
  58112.2157     0.55266E-01 
  58152.5434     0.54339E-01 
  58192.8711     0.53395E-01 
  58233.1988     0.52438E-01 
  58273.5265     0.51473E-01 
  58313.8542     0.50503E-01 
  58354.1819     0.49531E-01 
  58394.5096     0.48561E-01 
  58434.8373     0.47594E-01 
  58475.1650     0.46634E-01 
  58515.4927     0.45681E-01 
  58555.8204     0.44739E-01 
  58596.1481     0.43810E-01 
  58636.4758     0.42896E-01 
  58676.8035     0.42000E-01 
  58717.1312     0.41124E-01 
  58757.4589     0.40271E-01 
  58797.7866     0.39442E-01 
  58838.1143     0.38639E-01 
  58878.4420     0.37862E-01 
  58918.7697     0.37114E-01 
  58959.0974     0.36395E-01 
  58999.4251     0.35704E-01 
  59039.7528     0.35040E-01 
  59080.0805     0.34404E-01 
  59120.4082     0.33792E-01 
  59160.7359     0.33205E-01 
  59201.0636     0.32640E-01 
  59241.3913     0.32094E-01 
  59281.7190     0.31565E-01 
  59322.0467     0.31051E-01 
  59362.3744     0.30548E-01 
  59402.7021     0.30056E-01 
  59443.0298     0.29571E-01 
  59483.3575     0.29091E-01 
  59523.6852     0.28614E-01 
  59564.0129     0.28140E-01 
  59604.3406     0.27668E-01 
  59644.6683     0.27195E-01 
  59684.9960     0.26723E-01 
  59725.3237     0.26251E-01 
  59765.6514     0.25779E-01 
  59805.9791     0.25308E-01 
  59846.3068     0.24837E-01 
  59886.6345     0.24369E-01 
  59926.9622     0.23903E-01 
  59967.2899     0.23439E-01 
  60007.6176     0.22979E-01 
  60047.9453     0.22523E-01 
  60088.2730     0.22072E-01 
  60128.6007     0.21626E-01 
  60168.9284     0.21185E-01 
  60209.2561     0.20750E-01 
  60249.5838     0.20321E-01 
  60289.9115     0.19899E-01 
  60330.2392     0.19483E-01 
  60370.5669     0.19075E-01 
  60410.8946     0.18675E-01 
  60451.2223     0.18283E-01 
  60491.5500     0.17898E-01 
  60531.8777     0.17523E-01 
  60572.2054     0.17155E-01 
  60612.5331     0.16797E-01 
  60652.8608     0.16447E-01 
  60693.1885     0.16107E-01 
  60733.5162     0.15775E-01 
  60773.8439     0.15451E-01 
  60814.1716     0.15137E-01 
  60854.4993     0.14830E-01 
  60894.8270     0.14531E-01 
  60935.1547     0.14240E-01 
  60975.4824     0.13957E-01 
  61015.8101     0.13680E-01 
  61056.1378     0.13409E-01 
  61096.4655     0.13145E-01 
  61136.7932     0.12886E-01 
  61177.1209     0.12633E-01 
  61217.4486     0.12384E-01 
  61257.7763     0.12140E-01 
  61298.1040     0.11900E-01 
  61338.4317     0.11665E-01 
  61378.7594     0.11433E-01 
  61419.0871     0.11205E-01 
  61459.4148     0.10980E-01 
  61499.7425     0.10759E-01 
  61540.0702     0.10542E-01 
  61580.3979     0.10328E-01 
  61620.7256     0.10117E-01 
  61661.0533     0.99100E-02 
  61701.3810     0.97062E-02 
  61741.7087     0.95058E-02 
  61782.0364     0.93088E-02 
  61822.3641     0.91154E-02 
  61862.6918     0.89254E-02 
  61903.0195     0.87388E-02 
  61943.3472     0.85558E-02 
  61983.6749     0.83762E-02 
  62024.0026     0.82001E-02 
  62064.3303     0.80275E-02 
  62104.6580     0.78585E-02 
  62144.9857     0.76928E-02 
  62185.3134     0.75307E-02 
  62225.6411     0.73720E-02 
  62265.9688     0.72168E-02 
  62306.2965     0.70649E-02 
  62346.6242     0.69165E-02 
  62386.9519     0.67714E-02 
  62427.2796     0.66296E-02 
  62467.6073     0.64910E-02 
  62507.9350     0.63556E-02 
  62548.2627     0.62234E-02 
  62588.5904     0.60942E-02 
  62628.9181     0.59680E-02 
  62669.2458     0.58446E-02 
  62709.5735     0.57241E-02 
  62749.9012     0.56063E-02 
  62790.2289     0.54911E-02 
  62830.5566     0.53785E-02 
  62870.8843     0.52683E-02 
  62911.2120     0.51605E-02 
  62951.5397     0.50550E-02 
  62991.8674     0.49517E-02 
  63032.1951     0.48506E-02 
  63072.5228     0.47516E-02 
  63112.8505     0.46546E-02 
  63153.1782     0.45596E-02 
  63193.5059     0.44665E-02 
  63233.8336     0.43753E-02 
  63274.1613     0.42860E-02 
  63314.4890     0.41984E-02 
  63354.8167     0.41127E-02 
  63395.1444     0.40287E-02 
  63435.4721     0.39464E-02 
  63475.7998     0.38657E-02 
  63516.1275     0.37868E-02 
  63556.4552     0.37095E-02 
  63596.7829     0.36337E-02 
  63637.1106     0.35596E-02 
  63677.4383     0.34870E-02 
  63717.7660     0.34160E-02 
  63758.0937     0.33464E-02 
  63798.4214     0.32784E-02 
  63838.7491     0.32118E-02 
  63879.0768     0.31466E-02 
  63919.4045     0.30828E-02 
  63959.7322     0.30204E-02 
  64000.0599     0.29594E-02 
  64040.3876     0.28998E-02 
  64080.7153     0.28414E-02 
  64121.0430     0.27843E-02 
  64161.3707     0.27285E-02 
  64201.6984     0.26739E-02 
  64242.0261     0.26205E-02 
  64282.3538     0.25683E-02 
  64322.6815     0.25172E-02 
  64363.0092     0.24673E-02 
  64403.3369     0.24184E-02 
  64443.6646     0.23706E-02 
  64483.9923     0.23239E-02 
  64524.3200     0.22782E-02 
  64564.6477     0.22335E-02 
  64604.9754     0.21897E-02 
  64645.3031     0.21469E-02 
  64685.6308     0.21050E-02 
  64725.9585     0.20640E-02 
  64766.2862     0.20238E-02 
  64806.6139     0.19845E-02 
  64846.9416     0.19461E-02 
  64887.2693     0.19084E-02 
  64927.5970     0.18716E-02 
  64967.9247     0.18355E-02 
  65008.2524     0.18001E-02 
  65048.5801     0.17656E-02 
  65088.9078     0.17317E-02 
  65129.2355     0.16985E-02 
  65169.5632     0.16661E-02 
  65209.8909     0.16343E-02 
  65250.2186     0.16031E-02 
  65290.5463     0.15727E-02 
  65330.8740     0.15428E-02 
  65371.2017     0.15136E-02 
  65411.5294     0.14850E-02 
  65451.8571     0.14570E-02 
  65492.1848     0.14295E-02 
  65532.5125     0.14027E-02 
  65572.8402     0.13764E-02 
  65613.1679     0.13506E-02 
  65653.4956     0.13254E-02 
  65693.8233     0.13007E-02 
  65734.1510     0.12765E-02 
  65774.4787     0.12529E-02 
  65814.8064     0.12297E-02 
  65855.1341     0.12070E-02 
  65895.4618     0.11847E-02 
  65935.7895     0.11630E-02 
  65976.1172     0.11417E-02 
  66016.4449     0.11208E-02 
  66056.7726     0.11003E-02 
  66097.1003     0.10803E-02 
  66137.4280     0.10606E-02 
  66177.7557     0.10414E-02 
  66218.0834     0.10226E-02 
  66258.4111     0.10041E-02 
  66298.7388     0.98603E-03 
  66339.0665     0.96831E-03 
  66379.3942     0.95094E-03 
  66419.7219     0.93392E-03 
  66460.0496     0.91724E-03 
  66500.3773     0.90090E-03 
  66540.7050     0.88487E-03 
  66581.0327     0.86916E-03 
  66621.3604     0.85377E-03 
  66661.6881     0.83867E-03 
  66702.0158     0.82387E-03 
  66742.3435     0.80936E-03 
  66782.6712     0.79513E-03 
  66822.9989     0.78118E-03 
  66863.3266     0.76749E-03 
  66903.6543     0.75408E-03 
  66943.9820     0.74092E-03 
  66984.3097     0.72801E-03 
  67024.6374     0.71536E-03 
  67064.9651     0.70294E-03 
  67105.2928     0.69076E-03 
  67145.6205     0.67882E-03 
  67185.9482     0.66710E-03 
  67226.2759     0.65560E-03 
  67266.6036     0.64432E-03 
  67306.9313     0.63325E-03 
  67347.2590     0.62239E-03 
  67387.5867     0.61174E-03 
  67427.9144     0.60128E-03 
  67468.2421     0.59102E-03 
  67508.5698     0.58095E-03 
  67548.8975     0.57106E-03 
  67589.2252     0.56136E-03 
  67629.5529     0.55184E-03 
  67669.8806     0.54249E-03 
  67710.2083     0.53331E-03 
  67750.5360     0.52430E-03 
  67790.8637     0.51546E-03 
  67831.1914     0.50677E-03 
  67871.5191     0.49824E-03 
  67911.8468     0.48987E-03 
  67952.1745     0.48164E-03 
  67992.5022     0.47357E-03 
  68032.8299     0.46563E-03 
  68073.1576     0.45784E-03 
  68113.4853     0.45018E-03 
  68153.8130     0.44266E-03 
  68194.1407     0.43527E-03 
  68234.4684     0.42801E-03 
  68274.7961     0.42088E-03 
  68315.1238     0.41387E-03 
  68355.4515     0.40698E-03 
  68395.7792     0.40021E-03 
  68436.1069     0.39356E-03 
  68476.4346     0.38702E-03 
  68516.7623     0.38059E-03 
  68557.0900     0.37428E-03 
  68597.4177     0.36806E-03 
  68637.7454     0.36196E-03 
  68678.0731     0.35596E-03 
  68718.4008     0.35005E-03 
  68758.7285     0.34425E-03 
  68799.0562     0.33854E-03 
  68839.3839     0.33293E-03 
  68879.7116     0.32741E-03 
  68920.0393     0.32199E-03 
  68960.3670     0.31665E-03 
  69000.6947     0.31140E-03 
  69041.0224     0.30623E-03 
  69081.3501     0.30115E-03 
  69121.6778     0.29615E-03 
  69162.0055     0.29123E-03 
  69202.3332     0.28640E-03 
  69242.6609     0.28164E-03 
  69282.9886     0.27695E-03 
  69323.3163     0.27234E-03 
  69363.6440     0.26781E-03 
  69403.9717     0.26334E-03 
  69444.2994     0.25895E-03 
  69484.6271     0.25462E-03 
  69524.9548     0.25037E-03 
  69565.2825     0.24618E-03 
  69605.6102     0.24205E-03 
  69645.9379     0.23799E-03 
  69686.2656     0.23399E-03 
  69726.5933     0.23006E-03 
  69766.9210     0.22618E-03 
  69807.2487     0.22237E-03 
  69847.5764     0.21861E-03 
  69887.9041     0.21491E-03 
  69928.2318     0.21127E-03 
  69968.5595     0.20768E-03 
  70008.8872     0.20415E-03 
  70049.2149     0.20067E-03 
  70089.5426     0.19724E-03 
  70129.8703     0.19386E-03 
  70170.1980     0.19053E-03 
  70210.5257     0.18726E-03 
  70250.8534     0.18403E-03 
  70291.1811     0.18085E-03 
  70331.5088     0.17772E-03 
  70371.8365     0.17463E-03 
  70412.1642     0.17159E-03 
  70452.4919     0.16859E-03 
  70492.8196     0.16564E-03 
  70533.1473     0.16273E-03 
  70573.4750     0.15986E-03 
  70613.8027     0.15703E-03 
  70654.1304     0.15425E-03 
  70694.4581     0.15151E-03 
  70734.7858     0.14880E-03 
  70775.1135     0.14613E-03 
  70815.4412     0.14351E-03 
  70855.7689     0.14092E-03 
  70896.0966     0.13837E-03 
  70936.4243     0.13585E-03 
  70976.7520     0.13337E-03 
  71017.0797     0.13093E-03 
  71057.4074     0.12852E-03 
  71097.7351     0.12614E-03 
  71138.0628     0.12380E-03 
  71178.3905     0.12149E-03 
  71218.7182     0.11922E-03 
  71259.0459     0.11697E-03 
  71299.3736     0.11476E-03 
  71339.7013     0.11258E-03 
  71380.0290     0.11043E-03 
  71420.3567     0.10831E-03 
  71460.6844     0.10622E-03 
  71501.0121     0.10416E-03 
  71541.3398     0.10213E-03 
  71581.6675     0.10013E-03 
  71621.9952     0.98153E-04 
  71662.3229     0.96206E-04 
  71702.6506     0.94287E-04 
  71742.9783     0.92395E-04 
  71783.3060     0.90529E-04 
  71823.6337     0.88690E-04 
  71863.9614     0.86877E-04 
  71904.2891     0.85089E-04 
  71944.6168     0.83326E-04 
  71984.9445     0.81589E-04 
  72025.2722     0.79875E-04 
  72065.5999     0.78187E-04 
  72105.9276     0.76521E-04 
  72146.2553     0.74880E-04 
  72186.5830     0.73262E-04 
  72226.9107     0.71667E-04 
  72267.2384     0.70095E-04 
  72307.5661     0.68545E-04 
  72347.8938     0.67017E-04 
  72388.2215     0.65511E-04 
  72428.5492     0.64027E-04 
  72468.8769     0.62565E-04 
  72509.2046     0.61123E-04 
  72549.5323     0.59702E-04 
  72589.8600     0.58303E-04 
