  32262.1600     0.18702E-05 
  32302.4877     0.21297E-05 
  32342.8154     0.24260E-05 
  32383.1431     0.27597E-05 
  32423.4708     0.31316E-05 
  32463.7985     0.35421E-05 
  32504.1262     0.39920E-05 
  32544.4539     0.44819E-05 
  32584.7816     0.50124E-05 
  32625.1093     0.55843E-05 
  32665.4370     0.61983E-05 
  32705.7647     0.68550E-05 
  32746.0924     0.75551E-05 
  32786.4201     0.82995E-05 
  32826.7478     0.90888E-05 
  32867.0755     0.99238E-05 
  32907.4032     0.10805E-04 
  32947.7309     0.11734E-04 
  32988.0586     0.12711E-04 
  33028.3863     0.13737E-04 
  33068.7140     0.14812E-04 
  33109.0417     0.15939E-04 
  33149.3694     0.17116E-04 
  33189.6971     0.18346E-04 
  33230.0248     0.19630E-04 
  33270.3525     0.20968E-04 
  33310.6802     0.22360E-04 
  33351.0079     0.23809E-04 
  33391.3356     0.25315E-04 
  33431.6633     0.26880E-04 
  33471.9910     0.28503E-04 
  33512.3187     0.30186E-04 
  33552.6464     0.31931E-04 
  33592.9741     0.33738E-04 
  33633.3018     0.35609E-04 
  33673.6295     0.37544E-04 
  33713.9572     0.39545E-04 
  33754.2849     0.41613E-04 
  33794.6126     0.43748E-04 
  33834.9403     0.45953E-04 
  33875.2680     0.48229E-04 
  33915.5957     0.50576E-04 
  33955.9234     0.52997E-04 
  33996.2511     0.55492E-04 
  34036.5788     0.58063E-04 
  34076.9065     0.60710E-04 
  34117.2342     0.63437E-04 
  34157.5619     0.66243E-04 
  34197.8896     0.69131E-04 
  34238.2173     0.72101E-04 
  34278.5450     0.75156E-04 
  34318.8727     0.78297E-04 
  34359.2004     0.81525E-04 
  34399.5281     0.84842E-04 
  34439.8558     0.88250E-04 
  34480.1835     0.91750E-04 
  34520.5112     0.95345E-04 
  34560.8389     0.99035E-04 
  34601.1666     0.10282E-03 
  34641.4943     0.10671E-03 
  34681.8220     0.11070E-03 
  34722.1497     0.11479E-03 
  34762.4774     0.11899E-03 
  34802.8051     0.12329E-03 
  34843.1328     0.12770E-03 
  34883.4605     0.13222E-03 
  34923.7882     0.13686E-03 
  34964.1159     0.14161E-03 
  35004.4436     0.14648E-03 
  35044.7713     0.15147E-03 
  35085.0990     0.15658E-03 
  35125.4267     0.16181E-03 
  35165.7544     0.16717E-03 
  35206.0821     0.17266E-03 
  35246.4098     0.17828E-03 
  35286.7375     0.18403E-03 
  35327.0652     0.18992E-03 
  35367.3929     0.19594E-03 
  35407.7206     0.20211E-03 
  35448.0483     0.20843E-03 
  35488.3760     0.21489E-03 
  35528.7037     0.22149E-03 
  35569.0314     0.22826E-03 
  35609.3591     0.23517E-03 
  35649.6868     0.24225E-03 
  35690.0145     0.24948E-03 
  35730.3422     0.25688E-03 
  35770.6699     0.26445E-03 
  35810.9976     0.27219E-03 
  35851.3253     0.28010E-03 
  35891.6530     0.28819E-03 
  35931.9807     0.29646E-03 
  35972.3084     0.30491E-03 
  36012.6361     0.31355E-03 
  36052.9638     0.32238E-03 
  36093.2915     0.33141E-03 
  36133.6192     0.34064E-03 
  36173.9469     0.35007E-03 
  36214.2746     0.35970E-03 
  36254.6023     0.36955E-03 
  36294.9300     0.37961E-03 
  36335.2577     0.38989E-03 
  36375.5854     0.40039E-03 
  36415.9131     0.41113E-03 
  36456.2408     0.42209E-03 
  36496.5685     0.43329E-03 
  36536.8962     0.44473E-03 
  36577.2239     0.45642E-03 
  36617.5516     0.46836E-03 
  36657.8793     0.48055E-03 
  36698.2070     0.49301E-03 
  36738.5347     0.50573E-03 
  36778.8624     0.51872E-03 
  36819.1901     0.53199E-03 
  36859.5178     0.54554E-03 
  36899.8455     0.55938E-03 
  36940.1732     0.57352E-03 
  36980.5009     0.58795E-03 
  37020.8286     0.60269E-03 
  37061.1563     0.61774E-03 
  37101.4840     0.63311E-03 
  37141.8117     0.64880E-03 
  37182.1394     0.66483E-03 
  37222.4671     0.68119E-03 
  37262.7948     0.69790E-03 
  37303.1225     0.71496E-03 
  37343.4502     0.73238E-03 
  37383.7779     0.75016E-03 
  37424.1056     0.76832E-03 
  37464.4333     0.78686E-03 
  37504.7610     0.80578E-03 
  37545.0887     0.82511E-03 
  37585.4164     0.84484E-03 
  37625.7441     0.86498E-03 
  37666.0718     0.88555E-03 
  37706.3995     0.90655E-03 
  37746.7272     0.92798E-03 
  37787.0549     0.94987E-03 
  37827.3826     0.97221E-03 
  37867.7103     0.99502E-03 
  37908.0380     0.10183E-02 
  37948.3657     0.10421E-02 
  37988.6934     0.10664E-02 
  38029.0211     0.10911E-02 
  38069.3488     0.11164E-02 
  38109.6765     0.11423E-02 
  38150.0042     0.11686E-02 
  38190.3319     0.11956E-02 
  38230.6596     0.12230E-02 
  38270.9873     0.12511E-02 
  38311.3150     0.12798E-02 
  38351.6427     0.13090E-02 
  38391.9704     0.13389E-02 
  38432.2981     0.13694E-02 
  38472.6258     0.14005E-02 
  38512.9535     0.14323E-02 
  38553.2812     0.14647E-02 
  38593.6089     0.14979E-02 
  38633.9366     0.15317E-02 
  38674.2643     0.15663E-02 
  38714.5920     0.16015E-02 
  38754.9197     0.16375E-02 
  38795.2474     0.16743E-02 
  38835.5751     0.17119E-02 
  38875.9028     0.17502E-02 
  38916.2305     0.17894E-02 
  38956.5582     0.18293E-02 
  38996.8859     0.18702E-02 
  39037.2136     0.19119E-02 
  39077.5413     0.19544E-02 
  39117.8690     0.19979E-02 
  39158.1967     0.20423E-02 
  39198.5244     0.20877E-02 
  39238.8521     0.21340E-02 
  39279.1798     0.21813E-02 
  39319.5075     0.22296E-02 
  39359.8352     0.22790E-02 
  39400.1629     0.23294E-02 
  39440.4906     0.23808E-02 
  39480.8183     0.24334E-02 
  39521.1460     0.24871E-02 
  39561.4737     0.25420E-02 
  39601.8014     0.25981E-02 
  39642.1291     0.26553E-02 
  39682.4568     0.27138E-02 
  39722.7845     0.27736E-02 
  39763.1122     0.28346E-02 
  39803.4399     0.28970E-02 
  39843.7676     0.29607E-02 
  39884.0953     0.30258E-02 
  39924.4230     0.30923E-02 
  39964.7507     0.31603E-02 
  40005.0784     0.32298E-02 
  40045.4061     0.33008E-02 
  40085.7338     0.33733E-02 
  40126.0615     0.34474E-02 
  40166.3892     0.35232E-02 
  40206.7169     0.36006E-02 
  40247.0446     0.36797E-02 
  40287.3723     0.37606E-02 
  40327.7000     0.38433E-02 
  40368.0277     0.39277E-02 
  40408.3554     0.40141E-02 
  40448.6831     0.41024E-02 
  40489.0108     0.41927E-02 
  40529.3385     0.42849E-02 
  40569.6662     0.43793E-02 
  40609.9939     0.44757E-02 
  40650.3216     0.45744E-02 
  40690.6493     0.46752E-02 
  40730.9770     0.47783E-02 
  40771.3047     0.48837E-02 
  40811.6324     0.49916E-02 
  40851.9601     0.51018E-02 
  40892.2878     0.52146E-02 
  40932.6155     0.53300E-02 
  40972.9432     0.54480E-02 
  41013.2709     0.55686E-02 
  41053.5986     0.56921E-02 
  41093.9263     0.58184E-02 
  41134.2540     0.59476E-02 
  41174.5817     0.60797E-02 
  41214.9094     0.62150E-02 
  41255.2371     0.63533E-02 
  41295.5648     0.64949E-02 
  41335.8925     0.66398E-02 
  41376.2202     0.67881E-02 
  41416.5479     0.69398E-02 
  41456.8756     0.70951E-02 
  41497.2033     0.72541E-02 
  41537.5310     0.74168E-02 
  41577.8587     0.75834E-02 
  41618.1864     0.77539E-02 
  41658.5141     0.79284E-02 
  41698.8418     0.81072E-02 
  41739.1695     0.82902E-02 
  41779.4972     0.84775E-02 
  41819.8249     0.86694E-02 
  41860.1526     0.88659E-02 
  41900.4803     0.90672E-02 
  41940.8080     0.92733E-02 
  41981.1357     0.94844E-02 
  42021.4634     0.97007E-02 
  42061.7911     0.99223E-02 
  42102.1188     0.10149E-01 
  42142.4465     0.10382E-01 
  42182.7742     0.10620E-01 
  42223.1019     0.10864E-01 
  42263.4296     0.11115E-01 
  42303.7573     0.11371E-01 
  42344.0850     0.11634E-01 
  42384.4127     0.11903E-01 
  42424.7404     0.12179E-01 
  42465.0681     0.12463E-01 
  42505.3958     0.12753E-01 
  42545.7235     0.13051E-01 
  42586.0512     0.13356E-01 
  42626.3789     0.13669E-01 
  42666.7066     0.13990E-01 
  42707.0343     0.14319E-01 
  42747.3620     0.14657E-01 
  42787.6897     0.15003E-01 
  42828.0174     0.15359E-01 
  42868.3451     0.15723E-01 
  42908.6728     0.16097E-01 
  42949.0005     0.16481E-01 
  42989.3282     0.16875E-01 
  43029.6559     0.17280E-01 
  43069.9836     0.17695E-01 
  43110.3113     0.18121E-01 
  43150.6390     0.18559E-01 
  43190.9667     0.19008E-01 
  43231.2944     0.19469E-01 
  43271.6221     0.19943E-01 
  43311.9498     0.20430E-01 
  43352.2775     0.20929E-01 
  43392.6052     0.21443E-01 
  43432.9329     0.21970E-01 
  43473.2606     0.22512E-01 
  43513.5883     0.23069E-01 
  43553.9160     0.23641E-01 
  43594.2437     0.24230E-01 
  43634.5714     0.24834E-01 
  43674.8991     0.25456E-01 
  43715.2268     0.26095E-01 
  43755.5545     0.26752E-01 
  43795.8822     0.27428E-01 
  43836.2099     0.28123E-01 
  43876.5376     0.28837E-01 
  43916.8653     0.29573E-01 
  43957.1930     0.30329E-01 
  43997.5207     0.31108E-01 
  44037.8484     0.31909E-01 
  44078.1761     0.32734E-01 
  44118.5038     0.33583E-01 
  44158.8315     0.34456E-01 
  44199.1592     0.35356E-01 
  44239.4869     0.36283E-01 
  44279.8146     0.37237E-01 
  44320.1423     0.38219E-01 
  44360.4700     0.39232E-01 
  44400.7977     0.40275E-01 
  44441.1254     0.41350E-01 
  44481.4531     0.42458E-01 
  44521.7808     0.43600E-01 
  44562.1085     0.44777E-01 
  44602.4362     0.45991E-01 
  44642.7639     0.47242E-01 
  44683.0916     0.48533E-01 
  44723.4193     0.49865E-01 
  44763.7470     0.51238E-01 
  44804.0747     0.52656E-01 
  44844.4024     0.54119E-01 
  44884.7301     0.55629E-01 
  44925.0578     0.57187E-01 
  44965.3855     0.58797E-01 
  45005.7132     0.60459E-01 
  45046.0409     0.62176E-01 
  45086.3686     0.63949E-01 
  45126.6963     0.65781E-01 
  45167.0240     0.67675E-01 
  45207.3517     0.69632E-01 
  45247.6794     0.71656E-01 
  45288.0071     0.73748E-01 
  45328.3348     0.75912E-01 
  45368.6625     0.78150E-01 
  45408.9902     0.80466E-01 
  45449.3179     0.82862E-01 
  45489.6456     0.85342E-01 
  45529.9733     0.87910E-01 
  45570.3010     0.90569E-01 
  45610.6287     0.93322E-01 
  45650.9564     0.96174E-01 
  45691.2841     0.99129E-01 
  45731.6118     0.10219E+00 
  45771.9395     0.10537E+00 
  45812.2672     0.10866E+00 
  45852.5949     0.11207E+00 
  45892.9226     0.11561E+00 
  45933.2503     0.11929E+00 
  45973.5780     0.12310E+00 
  46013.9057     0.12706E+00 
  46054.2334     0.13117E+00 
  46094.5611     0.13544E+00 
  46134.8888     0.13987E+00 
  46175.2165     0.14448E+00 
  46215.5442     0.14927E+00 
  46255.8719     0.15425E+00 
  46296.1996     0.15943E+00 
  46336.5273     0.16482E+00 
  46376.8550     0.17043E+00 
  46417.1827     0.17627E+00 
  46457.5104     0.18235E+00 
  46497.8381     0.18868E+00 
  46538.1658     0.19527E+00 
  46578.4935     0.20215E+00 
  46618.8212     0.20932E+00 
  46659.1489     0.21680E+00 
  46699.4766     0.22460E+00 
  46739.8043     0.23274E+00 
  46780.1320     0.24124E+00 
  46820.4597     0.25012E+00 
  46860.7874     0.25939E+00 
  46901.1151     0.26909E+00 
  46941.4428     0.27923E+00 
  46981.7705     0.28983E+00 
  47022.0982     0.30093E+00 
  47062.4259     0.31255E+00 
  47102.7536     0.32472E+00 
  47143.0813     0.33747E+00 
  47183.4090     0.35084E+00 
  47223.7367     0.36485E+00 
  47264.0644     0.37956E+00 
  47304.3921     0.39500E+00 
  47344.7198     0.41121E+00 
  47385.0475     0.42825E+00 
  47425.3752     0.44617E+00 
  47465.7029     0.46501E+00 
  47506.0306     0.48483E+00 
  47546.3583     0.50571E+00 
  47586.6860     0.52771E+00 
  47627.0137     0.55090E+00 
  47667.3414     0.57537E+00 
  47707.6691     0.60119E+00 
  47747.9968     0.62846E+00 
  47788.3245     0.65728E+00 
  47828.6522     0.68775E+00 
  47868.9799     0.72001E+00 
  47909.3076     0.75416E+00 
  47949.6353     0.79036E+00 
  47989.9630     0.82874E+00 
  48030.2907     0.86949E+00 
  48070.6184     0.91277E+00 
  48110.9461     0.95877E+00 
  48151.2738     0.10077E+01 
  48191.6015     0.10599E+01 
  48231.9292     0.11154E+01 
  48272.2569     0.11747E+01 
  48312.5846     0.12380E+01 
  48352.9123     0.13056E+01 
  48393.2400     0.13780E+01 
  48433.5677     0.14556E+01 
  48473.8954     0.15388E+01 
  48514.2231     0.16280E+01 
  48554.5508     0.17240E+01 
  48594.8785     0.18273E+01 
  48635.2062     0.19385E+01 
  48675.5339     0.20586E+01 
  48715.8616     0.21884E+01 
  48756.1893     0.23287E+01 
  48796.5170     0.24809E+01 
  48836.8447     0.26460E+01 
  48877.1724     0.28255E+01 
  48917.5001     0.30210E+01 
  48957.8278     0.32343E+01 
  48998.1555     0.34674E+01 
  49038.4832     0.37226E+01 
  49078.8109     0.40027E+01 
  49119.1386     0.43107E+01 
  49159.4663     0.46502E+01 
  49199.7940     0.50252E+01 
  49240.1217     0.54405E+01 
  49280.4494     0.59016E+01 
  49320.7771     0.64148E+01 
  49361.1048     0.69877E+01 
  49401.4325     0.76290E+01 
  49441.7602     0.83492E+01 
  49482.0879     0.91603E+01 
  49522.4156     0.10077E+02 
  49562.7433     0.11116E+02 
  49603.0710     0.12298E+02 
  49643.3987     0.13647E+02 
  49683.7264     0.15191E+02 
  49724.0541     0.16965E+02 
  49764.3818     0.19006E+02 
  49804.7095     0.21360E+02 
  49845.0372     0.24079E+02 
  49885.3649     0.27215E+02 
  49925.6926     0.30823E+02 
  49966.0203     0.34949E+02 
  50006.3480     0.39617E+02 
  50046.6757     0.44807E+02 
  50087.0034     0.50424E+02 
  50127.3311     0.56262E+02 
  50167.6588     0.61984E+02 
  50207.9865     0.67122E+02 
  50248.3142     0.71158E+02 
  50288.6419     0.73648E+02 
  50328.9696     0.74390E+02 
  50369.2973     0.73515E+02 
  50409.6250     0.71462E+02 
  50449.9527     0.68849E+02 
  50490.2804     0.66295E+02 
  50530.6081     0.64291E+02 
  50570.9358     0.63137E+02 
  50611.2635     0.62922E+02 
  50651.5912     0.63549E+02 
  50691.9189     0.64763E+02 
  50732.2466     0.66210E+02 
  50772.5743     0.67514E+02 
  50812.9020     0.68358E+02 
  50853.2297     0.68543E+02 
  50893.5574     0.68015E+02 
  50933.8851     0.66852E+02 
  50974.2128     0.65229E+02 
  51014.5405     0.63366E+02 
  51054.8682     0.61480E+02 
  51095.1959     0.59745E+02 
  51135.5236     0.58271E+02 
  51175.8513     0.57106E+02 
  51216.1790     0.56238E+02 
  51256.5067     0.55615E+02 
  51296.8344     0.55158E+02 
  51337.1621     0.54776E+02 
  51377.4898     0.54372E+02 
  51417.8175     0.53847E+02 
  51458.1452     0.53090E+02 
  51498.4729     0.51967E+02 
  51538.8006     0.50323E+02 
  51579.1283     0.47992E+02 
  51619.4560     0.44838E+02 
  51659.7837     0.40809E+02 
  51700.1114     0.36013E+02 
  51740.4391     0.30770E+02 
  51780.7668     0.25599E+02 
  51821.0945     0.21127E+02 
  51861.4222     0.17914E+02 
  51901.7499     0.16301E+02 
  51942.0776     0.16315E+02 
  51982.4053     0.17673E+02 
  52022.7330     0.19862E+02 
  52063.0607     0.22263E+02 
  52103.3884     0.24298E+02 
  52143.7161     0.25561E+02 
  52184.0438     0.25888E+02 
  52224.3715     0.25368E+02 
  52264.6992     0.24282E+02 
  52305.0269     0.23009E+02 
  52345.3546     0.21933E+02 
  52385.6823     0.21359E+02 
  52426.0100     0.21463E+02 
  52466.3377     0.22273E+02 
  52506.6654     0.23681E+02 
  52546.9931     0.25491E+02 
  52587.3208     0.27472E+02 
  52627.6485     0.29417E+02 
  52667.9762     0.31176E+02 
  52708.3039     0.32677E+02 
  52748.6316     0.33917E+02 
  52788.9593     0.34945E+02 
  52829.2870     0.35841E+02 
  52869.6147     0.36681E+02 
  52909.9424     0.37523E+02 
  52950.2701     0.38397E+02 
  52990.5978     0.39297E+02 
  53030.9255     0.40193E+02 
  53071.2532     0.41032E+02 
  53111.5809     0.41747E+02 
  53151.9086     0.42262E+02 
  53192.2363     0.42516E+02 
  53232.5640     0.42470E+02 
  53272.8917     0.42110E+02 
  53313.2194     0.41436E+02 
  53353.5471     0.40442E+02 
  53393.8748     0.39097E+02 
  53434.2025     0.37358E+02 
  53474.5302     0.35203E+02 
  53514.8579     0.32678E+02 
  53555.1856     0.29922E+02 
  53595.5133     0.27141E+02 
  53635.8410     0.24558E+02 
  53676.1687     0.22347E+02 
  53716.4964     0.20603E+02 
  53756.8241     0.19326E+02 
  53797.1518     0.18440E+02 
  53837.4795     0.17813E+02 
  53877.8072     0.17296E+02 
  53918.1349     0.16752E+02 
  53958.4626     0.16091E+02 
  53998.7903     0.15278E+02 
  54039.1180     0.14336E+02 
  54079.4457     0.13331E+02 
  54119.7734     0.12349E+02 
  54160.1011     0.11477E+02 
  54200.4288     0.10784E+02 
  54240.7565     0.10305E+02 
  54281.0842     0.10043E+02 
  54321.4119     0.99751E+01 
  54361.7396     0.10057E+02 
  54402.0673     0.10242E+02 
  54442.3950     0.10485E+02 
  54482.7227     0.10754E+02 
  54523.0504     0.11030E+02 
  54563.3781     0.11306E+02 
  54603.7058     0.11583E+02 
  54644.0335     0.11865E+02 
  54684.3612     0.12154E+02 
  54724.6889     0.12451E+02 
  54765.0166     0.12752E+02 
  54805.3443     0.13051E+02 
  54845.6720     0.13335E+02 
  54885.9997     0.13589E+02 
  54926.3274     0.13793E+02 
  54966.6551     0.13929E+02 
  55006.9828     0.13987E+02 
  55047.3105     0.13965E+02 
  55087.6382     0.13866E+02 
  55127.9659     0.13695E+02 
  55168.2936     0.13448E+02 
  55208.6213     0.13119E+02 
  55248.9490     0.12702E+02 
  55289.2767     0.12206E+02 
  55329.6044     0.11651E+02 
  55369.9321     0.11069E+02 
  55410.2598     0.10493E+02 
  55450.5875     0.99512E+01 
  55490.9152     0.94583E+01 
  55531.2429     0.90194E+01 
  55571.5706     0.86291E+01 
  55611.8983     0.82746E+01 
  55652.2260     0.79394E+01 
  55692.5537     0.76082E+01 
  55732.8814     0.72701E+01 
  55773.2091     0.69212E+01 
  55813.5368     0.65647E+01 
  55853.8645     0.62094E+01 
  55894.1922     0.58673E+01 
  55934.5199     0.55505E+01 
  55974.8476     0.52686E+01 
  56015.1753     0.50272E+01 
  56055.5030     0.48276E+01 
  56095.8307     0.46670E+01 
  56136.1584     0.45402E+01 
  56176.4861     0.44407E+01 
  56216.8138     0.43622E+01 
  56257.1415     0.42995E+01 
  56297.4692     0.42491E+01 
  56337.7969     0.42088E+01 
  56378.1246     0.41774E+01 
  56418.4523     0.41537E+01 
  56458.7800     0.41364E+01 
  56499.1077     0.41243E+01 
  56539.4354     0.41161E+01 
  56579.7631     0.41103E+01 
  56620.0908     0.41047E+01 
  56660.4185     0.40967E+01 
  56700.7462     0.40828E+01 
  56741.0739     0.40602E+01 
  56781.4016     0.40275E+01 
  56821.7293     0.39844E+01 
  56862.0570     0.39316E+01 
  56902.3847     0.38695E+01 
  56942.7124     0.37976E+01 
  56983.0401     0.37152E+01 
  57023.3678     0.36220E+01 
  57063.6955     0.35194E+01 
  57104.0232     0.34101E+01 
  57144.3509     0.32974E+01 
  57184.6786     0.31845E+01 
  57225.0063     0.30738E+01 
  57265.3340     0.29668E+01 
  57305.6617     0.28642E+01 
  57345.9894     0.27657E+01 
  57386.3171     0.26704E+01 
  57426.6448     0.25773E+01 
  57466.9725     0.24854E+01 
  57507.3002     0.23943E+01 
  57547.6279     0.23039E+01 
  57587.9556     0.22150E+01 
  57628.2833     0.21285E+01 
  57668.6110     0.20459E+01 
  57708.9387     0.19681E+01 
  57749.2664     0.18960E+01 
  57789.5941     0.18300E+01 
  57829.9218     0.17701E+01 
  57870.2495     0.17159E+01 
  57910.5772     0.16668E+01 
  57950.9049     0.16222E+01 
  57991.2326     0.15812E+01 
  58031.5603     0.15435E+01 
  58071.8880     0.15087E+01 
  58112.2157     0.14763E+01 
  58152.5434     0.14462E+01 
  58192.8711     0.14180E+01 
  58233.1988     0.13915E+01 
  58273.5265     0.13664E+01 
  58313.8542     0.13424E+01 
  58354.1819     0.13194E+01 
  58394.5096     0.12969E+01 
  58434.8373     0.12747E+01 
  58475.1650     0.12522E+01 
  58515.4927     0.12292E+01 
  58555.8204     0.12057E+01 
  58596.1481     0.11816E+01 
  58636.4758     0.11569E+01 
  58676.8035     0.11318E+01 
  58717.1312     0.11060E+01 
  58757.4589     0.10795E+01 
  58797.7866     0.10525E+01 
  58838.1143     0.10250E+01 
  58878.4420     0.99746E+00 
  58918.7697     0.96999E+00 
  58959.0974     0.94286E+00 
  58999.4251     0.91623E+00 
  59039.7528     0.89021E+00 
  59080.0805     0.86482E+00 
  59120.4082     0.84007E+00 
  59160.7359     0.81589E+00 
  59201.0636     0.79225E+00 
  59241.3913     0.76912E+00 
  59281.7190     0.74650E+00 
  59322.0467     0.72445E+00 
  59362.3744     0.70304E+00 
  59402.7021     0.68237E+00 
  59443.0298     0.66254E+00 
  59483.3575     0.64360E+00 
  59523.6852     0.62559E+00 
  59564.0129     0.60851E+00 
  59604.3406     0.59232E+00 
  59644.6683     0.57697E+00 
  59684.9960     0.56239E+00 
  59725.3237     0.54851E+00 
  59765.6514     0.53525E+00 
  59805.9791     0.52258E+00 
  59846.3068     0.51045E+00 
  59886.6345     0.49880E+00 
  59926.9622     0.48761E+00 
  59967.2899     0.47681E+00 
  60007.6176     0.46638E+00 
  60047.9453     0.45628E+00 
  60088.2730     0.44647E+00 
  60128.6007     0.43692E+00 
  60168.9284     0.42759E+00 
  60209.2561     0.41843E+00 
  60249.5838     0.40941E+00 
  60289.9115     0.40051E+00 
  60330.2392     0.39173E+00 
  60370.5669     0.38306E+00 
  60410.8946     0.37450E+00 
  60451.2223     0.36605E+00 
  60491.5500     0.35770E+00 
  60531.8777     0.34944E+00 
  60572.2054     0.34130E+00 
  60612.5331     0.33328E+00 
  60652.8608     0.32541E+00 
  60693.1885     0.31769E+00 
  60733.5162     0.31014E+00 
  60773.8439     0.30277E+00 
  60814.1716     0.29557E+00 
  60854.4993     0.28855E+00 
  60894.8270     0.28170E+00 
  60935.1547     0.27503E+00 
  60975.4824     0.26852E+00 
  61015.8101     0.26217E+00 
  61056.1378     0.25600E+00 
  61096.4655     0.25000E+00 
  61136.7932     0.24418E+00 
  61177.1209     0.23853E+00 
  61217.4486     0.23307E+00 
  61257.7763     0.22778E+00 
  61298.1040     0.22268E+00 
  61338.4317     0.21774E+00 
  61378.7594     0.21297E+00 
  61419.0871     0.20835E+00 
  61459.4148     0.20387E+00 
  61499.7425     0.19954E+00 
  61540.0702     0.19533E+00 
  61580.3979     0.19125E+00 
  61620.7256     0.18729E+00 
  61661.0533     0.18343E+00 
  61701.3810     0.17968E+00 
  61741.7087     0.17602E+00 
  61782.0364     0.17246E+00 
  61822.3641     0.16899E+00 
  61862.6918     0.16560E+00 
  61903.0195     0.16228E+00 
  61943.3472     0.15904E+00 
  61983.6749     0.15587E+00 
  62024.0026     0.15276E+00 
  62064.3303     0.14972E+00 
  62104.6580     0.14674E+00 
  62144.9857     0.14381E+00 
  62185.3134     0.14095E+00 
  62225.6411     0.13814E+00 
  62265.9688     0.13540E+00 
  62306.2965     0.13270E+00 
  62346.6242     0.13007E+00 
  62386.9519     0.12749E+00 
  62427.2796     0.12496E+00 
  62467.6073     0.12250E+00 
  62507.9350     0.12008E+00 
  62548.2627     0.11773E+00 
  62588.5904     0.11542E+00 
  62628.9181     0.11317E+00 
  62669.2458     0.11098E+00 
  62709.5735     0.10883E+00 
  62749.9012     0.10673E+00 
  62790.2289     0.10468E+00 
  62830.5566     0.10268E+00 
  62870.8843     0.10073E+00 
  62911.2120     0.98827E-01 
  62951.5397     0.96969E-01 
  62991.8674     0.95155E-01 
  63032.1951     0.93387E-01 
  63072.5228     0.91660E-01 
  63112.8505     0.89975E-01 
  63153.1782     0.88330E-01 
  63193.5059     0.86724E-01 
  63233.8336     0.85154E-01 
  63274.1613     0.83620E-01 
  63314.4890     0.82120E-01 
  63354.8167     0.80654E-01 
  63395.1444     0.79220E-01 
  63435.4721     0.77816E-01 
  63475.7998     0.76443E-01 
  63516.1275     0.75098E-01 
  63556.4552     0.73782E-01 
  63596.7829     0.72492E-01 
  63637.1106     0.71229E-01 
  63677.4383     0.69991E-01 
  63717.7660     0.68777E-01 
  63758.0937     0.67588E-01 
  63798.4214     0.66421E-01 
  63838.7491     0.65278E-01 
  63879.0768     0.64157E-01 
  63919.4045     0.63057E-01 
  63959.7322     0.61979E-01 
  64000.0599     0.60922E-01 
  64040.3876     0.59885E-01 
  64080.7153     0.58869E-01 
  64121.0430     0.57872E-01 
  64161.3707     0.56894E-01 
  64201.6984     0.55936E-01 
  64242.0261     0.54996E-01 
  64282.3538     0.54074E-01 
  64322.6815     0.53171E-01 
  64363.0092     0.52284E-01 
  64403.3369     0.51415E-01 
  64443.6646     0.50563E-01 
  64483.9923     0.49727E-01 
  64524.3200     0.48908E-01 
  64564.6477     0.48104E-01 
  64604.9754     0.47315E-01 
  64645.3031     0.46542E-01 
  64685.6308     0.45783E-01 
  64725.9585     0.45038E-01 
  64766.2862     0.44308E-01 
  64806.6139     0.43592E-01 
  64846.9416     0.42888E-01 
  64887.2693     0.42198E-01 
  64927.5970     0.41521E-01 
  64967.9247     0.40855E-01 
  65008.2524     0.40202E-01 
  65048.5801     0.39561E-01 
  65088.9078     0.38931E-01 
  65129.2355     0.38312E-01 
  65169.5632     0.37705E-01 
  65209.8909     0.37108E-01 
  65250.2186     0.36521E-01 
  65290.5463     0.35944E-01 
  65330.8740     0.35378E-01 
  65371.2017     0.34821E-01 
  65411.5294     0.34274E-01 
  65451.8571     0.33736E-01 
  65492.1848     0.33207E-01 
  65532.5125     0.32686E-01 
  65572.8402     0.32175E-01 
  65613.1679     0.31672E-01 
  65653.4956     0.31178E-01 
  65693.8233     0.30691E-01 
  65734.1510     0.30213E-01 
  65774.4787     0.29743E-01 
  65814.8064     0.29280E-01 
  65855.1341     0.28825E-01 
  65895.4618     0.28377E-01 
  65935.7895     0.27937E-01 
  65976.1172     0.27504E-01 
  66016.4449     0.27077E-01 
  66056.7726     0.26658E-01 
  66097.1003     0.26245E-01 
  66137.4280     0.25839E-01 
  66177.7557     0.25440E-01 
  66218.0834     0.25046E-01 
  66258.4111     0.24659E-01 
  66298.7388     0.24279E-01 
  66339.0665     0.23904E-01 
  66379.3942     0.23535E-01 
  66419.7219     0.23171E-01 
  66460.0496     0.22814E-01 
  66500.3773     0.22462E-01 
  66540.7050     0.22115E-01 
  66581.0327     0.21774E-01 
  66621.3604     0.21437E-01 
  66661.6881     0.21106E-01 
  66702.0158     0.20780E-01 
  66742.3435     0.20459E-01 
  66782.6712     0.20143E-01 
  66822.9989     0.19831E-01 
  66863.3266     0.19524E-01 
  66903.6543     0.19222E-01 
  66943.9820     0.18924E-01 
  66984.3097     0.18630E-01 
  67024.6374     0.18341E-01 
  67064.9651     0.18056E-01 
  67105.2928     0.17775E-01 
  67145.6205     0.17498E-01 
  67185.9482     0.17226E-01 
  67226.2759     0.16957E-01 
  67266.6036     0.16692E-01 
  67306.9313     0.16431E-01 
  67347.2590     0.16173E-01 
  67387.5867     0.15919E-01 
  67427.9144     0.15669E-01 
  67468.2421     0.15423E-01 
  67508.5698     0.15179E-01 
  67548.8975     0.14940E-01 
  67589.2252     0.14703E-01 
  67629.5529     0.14470E-01 
  67669.8806     0.14240E-01 
  67710.2083     0.14014E-01 
  67750.5360     0.13790E-01 
  67790.8637     0.13570E-01 
  67831.1914     0.13352E-01 
  67871.5191     0.13138E-01 
  67911.8468     0.12927E-01 
  67952.1745     0.12718E-01 
  67992.5022     0.12512E-01 
  68032.8299     0.12310E-01 
  68073.1576     0.12110E-01 
  68113.4853     0.11912E-01 
  68153.8130     0.11717E-01 
  68194.1407     0.11525E-01 
  68234.4684     0.11336E-01 
  68274.7961     0.11149E-01 
  68315.1238     0.10964E-01 
  68355.4515     0.10782E-01 
  68395.7792     0.10603E-01 
  68436.1069     0.10426E-01 
  68476.4346     0.10251E-01 
  68516.7623     0.10079E-01 
  68557.0900     0.99083E-02 
  68597.4177     0.97404E-02 
  68637.7454     0.95747E-02 
  68678.0731     0.94112E-02 
  68718.4008     0.92498E-02 
  68758.7285     0.90905E-02 
  68799.0562     0.89334E-02 
  68839.3839     0.87783E-02 
  68879.7116     0.86252E-02 
  68920.0393     0.84741E-02 
  68960.3670     0.83251E-02 
  69000.6947     0.81779E-02 
  69041.0224     0.80327E-02 
  69081.3501     0.78894E-02 
  69121.6778     0.77479E-02 
  69162.0055     0.76083E-02 
  69202.3332     0.74705E-02 
  69242.6609     0.73345E-02 
  69282.9886     0.72003E-02 
  69323.3163     0.70678E-02 
  69363.6440     0.69370E-02 
  69403.9717     0.68080E-02 
  69444.2994     0.66806E-02 
  69484.6271     0.65548E-02 
  69524.9548     0.64308E-02 
  69565.2825     0.63083E-02 
  69605.6102     0.61874E-02 
  69645.9379     0.60681E-02 
  69686.2656     0.59504E-02 
  69726.5933     0.58342E-02 
  69766.9210     0.57195E-02 
  69807.2487     0.56063E-02 
  69847.5764     0.54946E-02 
  69887.9041     0.53843E-02 
  69928.2318     0.52756E-02 
  69968.5595     0.51682E-02 
  70008.8872     0.50623E-02 
  70049.2149     0.49577E-02 
  70089.5426     0.48546E-02 
  70129.8703     0.47528E-02 
  70170.1980     0.46523E-02 
  70210.5257     0.45533E-02 
  70250.8534     0.44555E-02 
  70291.1811     0.43590E-02 
  70331.5088     0.42639E-02 
  70371.8365     0.41700E-02 
  70412.1642     0.40774E-02 
  70452.4919     0.39860E-02 
  70492.8196     0.38959E-02 
  70533.1473     0.38071E-02 
  70573.4750     0.37194E-02 
  70613.8027     0.36330E-02 
  70654.1304     0.35478E-02 
  70694.4581     0.34637E-02 
  70734.7858     0.33809E-02 
  70775.1135     0.32992E-02 
  70815.4412     0.32186E-02 
  70855.7689     0.31392E-02 
  70896.0966     0.30610E-02 
  70936.4243     0.29839E-02 
  70976.7520     0.29079E-02 
  71017.0797     0.28330E-02 
  71057.4074     0.27592E-02 
  71097.7351     0.26865E-02 
  71138.0628     0.26148E-02 
  71178.3905     0.25443E-02 
  71218.7182     0.24748E-02 
  71259.0459     0.24064E-02 
  71299.3736     0.23391E-02 
  71339.7013     0.22728E-02 
  71380.0290     0.22075E-02 
  71420.3567     0.21432E-02 
  71460.6844     0.20800E-02 
  71501.0121     0.20179E-02 
  71541.3398     0.19567E-02 
  71581.6675     0.18965E-02 
  71621.9952     0.18374E-02 
  71662.3229     0.17792E-02 
  71702.6506     0.17221E-02 
  71742.9783     0.16659E-02 
  71783.3060     0.16107E-02 
  71823.6337     0.15565E-02 
  71863.9614     0.15032E-02 
  71904.2891     0.14510E-02 
  71944.6168     0.13997E-02 
  71984.9445     0.13493E-02 
  72025.2722     0.13000E-02 
  72065.5999     0.12516E-02 
  72105.9276     0.12041E-02 
  72146.2553     0.11576E-02 
  72186.5830     0.11120E-02 
  72226.9107     0.10674E-02 
  72267.2384     0.10237E-02 
  72307.5661     0.98100E-03 
  72347.8938     0.93920E-03 
  72388.2215     0.89834E-03 
  72428.5492     0.85842E-03 
  72468.8769     0.81944E-03 
  72509.2046     0.78138E-03 
  72549.5323     0.74426E-03 
  72589.8600     0.70807E-03 
