  32262.1600     0.48391E-06 
  32302.4877     0.49513E-06 
  32342.8154     0.50662E-06 
  32383.1431     0.51837E-06 
  32423.4708     0.53039E-06 
  32463.7985     0.54268E-06 
  32504.1262     0.55527E-06 
  32544.4539     0.56814E-06 
  32584.7816     0.58131E-06 
  32625.1093     0.59479E-06 
  32665.4370     0.60858E-06 
  32705.7647     0.62270E-06 
  32746.0924     0.63714E-06 
  32786.4201     0.65192E-06 
  32826.7478     0.66705E-06 
  32867.0755     0.68253E-06 
  32907.4032     0.69838E-06 
  32947.7309     0.71460E-06 
  32988.0586     0.73121E-06 
  33028.3863     0.74820E-06 
  33068.7140     0.76560E-06 
  33109.0417     0.78341E-06 
  33149.3694     0.80165E-06 
  33189.6971     0.82032E-06 
  33230.0248     0.83943E-06 
  33270.3525     0.85900E-06 
  33310.6802     0.87905E-06 
  33351.0079     0.89957E-06 
  33391.3356     0.92059E-06 
  33431.6633     0.94211E-06 
  33471.9910     0.96415E-06 
  33512.3187     0.98673E-06 
  33552.6464     0.10099E-05 
  33592.9741     0.10335E-05 
  33633.3018     0.10578E-05 
  33673.6295     0.10827E-05 
  33713.9572     0.11081E-05 
  33754.2849     0.11342E-05 
  33794.6126     0.11610E-05 
  33834.9403     0.11884E-05 
  33875.2680     0.12164E-05 
  33915.5957     0.12452E-05 
  33955.9234     0.12747E-05 
  33996.2511     0.13049E-05 
  34036.5788     0.13359E-05 
  34076.9065     0.13677E-05 
  34117.2342     0.14002E-05 
  34157.5619     0.14336E-05 
  34197.8896     0.14678E-05 
  34238.2173     0.15029E-05 
  34278.5450     0.15388E-05 
  34318.8727     0.15757E-05 
  34359.2004     0.16135E-05 
  34399.5281     0.16523E-05 
  34439.8558     0.16921E-05 
  34480.1835     0.17329E-05 
  34520.5112     0.17748E-05 
  34560.8389     0.18177E-05 
  34601.1666     0.18618E-05 
  34641.4943     0.19070E-05 
  34681.8220     0.19534E-05 
  34722.1497     0.20010E-05 
  34762.4774     0.20498E-05 
  34802.8051     0.21000E-05 
  34843.1328     0.21514E-05 
  34883.4605     0.22043E-05 
  34923.7882     0.22585E-05 
  34964.1159     0.23142E-05 
  35004.4436     0.23714E-05 
  35044.7713     0.24301E-05 
  35085.0990     0.24904E-05 
  35125.4267     0.25523E-05 
  35165.7544     0.26159E-05 
  35206.0821     0.26812E-05 
  35246.4098     0.27484E-05 
  35286.7375     0.28173E-05 
  35327.0652     0.28882E-05 
  35367.3929     0.29610E-05 
  35407.7206     0.30358E-05 
  35448.0483     0.31127E-05 
  35488.3760     0.31918E-05 
  35528.7037     0.32730E-05 
  35569.0314     0.33566E-05 
  35609.3591     0.34425E-05 
  35649.6868     0.35308E-05 
  35690.0145     0.36217E-05 
  35730.3422     0.37151E-05 
  35770.6699     0.38113E-05 
  35810.9976     0.39101E-05 
  35851.3253     0.40119E-05 
  35891.6530     0.41166E-05 
  35931.9807     0.42243E-05 
  35972.3084     0.43352E-05 
  36012.6361     0.44493E-05 
  36052.9638     0.45668E-05 
  36093.2915     0.46878E-05 
  36133.6192     0.48124E-05 
  36173.9469     0.49407E-05 
  36214.2746     0.50728E-05 
  36254.6023     0.52089E-05 
  36294.9300     0.53491E-05 
  36335.2577     0.54936E-05 
  36375.5854     0.56425E-05 
  36415.9131     0.57959E-05 
  36456.2408     0.59541E-05 
  36496.5685     0.61171E-05 
  36536.8962     0.62852E-05 
  36577.2239     0.64586E-05 
  36617.5516     0.66374E-05 
  36657.8793     0.68218E-05 
  36698.2070     0.70121E-05 
  36738.5347     0.72084E-05 
  36778.8624     0.74110E-05 
  36819.1901     0.76201E-05 
  36859.5178     0.78359E-05 
  36899.8455     0.80587E-05 
  36940.1732     0.82888E-05 
  36980.5009     0.85265E-05 
  37020.8286     0.87720E-05 
  37061.1563     0.90256E-05 
  37101.4840     0.92876E-05 
  37141.8117     0.95584E-05 
  37182.1394     0.98383E-05 
  37222.4671     0.10128E-04 
  37262.7948     0.10427E-04 
  37303.1225     0.10736E-04 
  37343.4502     0.11057E-04 
  37383.7779     0.11388E-04 
  37424.1056     0.11731E-04 
  37464.4333     0.12085E-04 
  37504.7610     0.12452E-04 
  37545.0887     0.12833E-04 
  37585.4164     0.13226E-04 
  37625.7441     0.13634E-04 
  37666.0718     0.14057E-04 
  37706.3995     0.14495E-04 
  37746.7272     0.14949E-04 
  37787.0549     0.15419E-04 
  37827.3826     0.15907E-04 
  37867.7103     0.16413E-04 
  37908.0380     0.16938E-04 
  37948.3657     0.17483E-04 
  37988.6934     0.18049E-04 
  38029.0211     0.18636E-04 
  38069.3488     0.19246E-04 
  38109.6765     0.19879E-04 
  38150.0042     0.20537E-04 
  38190.3319     0.21221E-04 
  38230.6596     0.21932E-04 
  38270.9873     0.22671E-04 
  38311.3150     0.23440E-04 
  38351.6427     0.24241E-04 
  38391.9704     0.25073E-04 
  38432.2981     0.25940E-04 
  38472.6258     0.26843E-04 
  38512.9535     0.27783E-04 
  38553.2812     0.28763E-04 
  38593.6089     0.29784E-04 
  38633.9366     0.30849E-04 
  38674.2643     0.31960E-04 
  38714.5920     0.33119E-04 
  38754.9197     0.34328E-04 
  38795.2474     0.35591E-04 
  38835.5751     0.36910E-04 
  38875.9028     0.38289E-04 
  38916.2305     0.39729E-04 
  38956.5582     0.41236E-04 
  38996.8859     0.42812E-04 
  39037.2136     0.44461E-04 
  39077.5413     0.46188E-04 
  39117.8690     0.47996E-04 
  39158.1967     0.49891E-04 
  39198.5244     0.51878E-04 
  39238.8521     0.53961E-04 
  39279.1798     0.56147E-04 
  39319.5075     0.58442E-04 
  39359.8352     0.60852E-04 
  39400.1629     0.63385E-04 
  39440.4906     0.66047E-04 
  39480.8183     0.68848E-04 
  39521.1460     0.71796E-04 
  39561.4737     0.74899E-04 
  39601.8014     0.78170E-04 
  39642.1291     0.81617E-04 
  39682.4568     0.85254E-04 
  39722.7845     0.89092E-04 
  39763.1122     0.93146E-04 
  39803.4399     0.97431E-04 
  39843.7676     0.10196E-03 
  39884.0953     0.10676E-03 
  39924.4230     0.11184E-03 
  39964.7507     0.11722E-03 
  40005.0784     0.12293E-03 
  40045.4061     0.12899E-03 
  40085.7338     0.13542E-03 
  40126.0615     0.14226E-03 
  40166.3892     0.14954E-03 
  40206.7169     0.15730E-03 
  40247.0446     0.16556E-03 
  40287.3723     0.17438E-03 
  40327.7000     0.18380E-03 
  40368.0277     0.19387E-03 
  40408.3554     0.20464E-03 
  40448.6831     0.21618E-03 
  40489.0108     0.22856E-03 
  40529.3385     0.24186E-03 
  40569.6662     0.25615E-03 
  40609.9939     0.27153E-03 
  40650.3216     0.28811E-03 
  40690.6493     0.30600E-03 
  40730.9770     0.32534E-03 
  40771.3047     0.34627E-03 
  40811.6324     0.36896E-03 
  40851.9601     0.39359E-03 
  40892.2878     0.42038E-03 
  40932.6155     0.44957E-03 
  40972.9432     0.48142E-03 
  41013.2709     0.51625E-03 
  41053.5986     0.55441E-03 
  41093.9263     0.59631E-03 
  41134.2540     0.64241E-03 
  41174.5817     0.69325E-03 
  41214.9094     0.74944E-03 
  41255.2371     0.81172E-03 
  41295.5648     0.88091E-03 
  41335.8925     0.95800E-03 
  41376.2202     0.10441E-02 
  41416.5479     0.11407E-02 
  41456.8756     0.12492E-02 
  41497.2033     0.13716E-02 
  41537.5310     0.15101E-02 
  41577.8587     0.16674E-02 
  41618.1864     0.18467E-02 
  41658.5141     0.20518E-02 
  41698.8418     0.22873E-02 
  41739.1695     0.25586E-02 
  41779.4972     0.28724E-02 
  41819.8249     0.32363E-02 
  41860.1526     0.36595E-02 
  41900.4803     0.41525E-02 
  41940.8080     0.47270E-02 
  41981.1357     0.53952E-02 
  42021.4634     0.61690E-02 
  42061.7911     0.70571E-02 
  42102.1188     0.80610E-02 
  42142.4465     0.91694E-02 
  42182.7742     0.10350E-01 
  42223.1019     0.11543E-01 
  42263.4296     0.12659E-01 
  42303.7573     0.13586E-01 
  42344.0850     0.14216E-01 
  42384.4127     0.14473E-01 
  42424.7404     0.14341E-01 
  42465.0681     0.13866E-01 
  42505.3958     0.13140E-01 
  42545.7235     0.12267E-01 
  42586.0512     0.11342E-01 
  42626.3789     0.10435E-01 
  42666.7066     0.95885E-02 
  42707.0343     0.88247E-02 
  42747.3620     0.81497E-02 
  42787.6897     0.75601E-02 
  42828.0174     0.70472E-02 
  42868.3451     0.66011E-02 
  42908.6728     0.62127E-02 
  42949.0005     0.58753E-02 
  42989.3282     0.55839E-02 
  43029.6559     0.53336E-02 
  43069.9836     0.51184E-02 
  43110.3113     0.49300E-02 
  43150.6390     0.47597E-02 
  43190.9667     0.45996E-02 
  43231.2944     0.44445E-02 
  43271.6221     0.42928E-02 
  43311.9498     0.41449E-02 
  43352.2775     0.40017E-02 
  43392.6052     0.38632E-02 
  43432.9329     0.37263E-02 
  43473.2606     0.35842E-02 
  43513.5883     0.34245E-02 
  43553.9160     0.32290E-02 
  43594.2437     0.29754E-02 
  43634.5714     0.26418E-02 
  43674.8991     0.22164E-02 
  43715.2268     0.17078E-02 
  43755.5545     0.11550E-02 
  43795.8822     0.63113E-03 
  43836.2099     0.23518E-03 
  43876.5376     0.70357E-04 
  43916.8653     0.21535E-03 
  43957.1930     0.69878E-03 
  43997.5207     0.14871E-02 
  44037.8484     0.24895E-02 
  44078.1761     0.35799E-02 
  44118.5038     0.46276E-02 
  44158.8315     0.55296E-02 
  44199.1592     0.62287E-02 
  44239.4869     0.67159E-02 
  44279.8146     0.70167E-02 
  44320.1423     0.71740E-02 
  44360.4700     0.72332E-02 
  44400.7977     0.72323E-02 
  44441.1254     0.71996E-02 
  44481.4531     0.71533E-02 
  44521.7808     0.71052E-02 
  44562.1085     0.70635E-02 
  44602.4362     0.70361E-02 
  44642.7639     0.70318E-02 
  44683.0916     0.70596E-02 
  44723.4193     0.71264E-02 
  44763.7470     0.72347E-02 
  44804.0747     0.73809E-02 
  44844.4024     0.75555E-02 
  44884.7301     0.77443E-02 
  44925.0578     0.79323E-02 
  44965.3855     0.81063E-02 
  45005.7132     0.82590E-02 
  45046.0409     0.83900E-02 
  45086.3686     0.85054E-02 
  45126.6963     0.86147E-02 
  45167.0240     0.87256E-02 
  45207.3517     0.88379E-02 
  45247.6794     0.89400E-02 
  45288.0071     0.90079E-02 
  45328.3348     0.90064E-02 
  45368.6625     0.88930E-02 
  45408.9902     0.86223E-02 
  45449.3179     0.81531E-02 
  45489.6456     0.74601E-02 
  45529.9733     0.65493E-02 
  45570.3010     0.54680E-02 
  45610.6287     0.43032E-02 
  45650.9564     0.31640E-02 
  45691.2841     0.21549E-02 
  45731.6118     0.13530E-02 
  45771.9395     0.79463E-03 
  45812.2672     0.47414E-03 
  45852.5949     0.35376E-03 
  45892.9226     0.37886E-03 
  45933.2503     0.49365E-03 
  45973.5780     0.65232E-03 
  46013.9057     0.82356E-03 
  46054.2334     0.98993E-03 
  46094.5611     0.11443E-02 
  46134.8888     0.12856E-02 
  46175.2165     0.14156E-02 
  46215.5442     0.15364E-02 
  46255.8719     0.16501E-02 
  46296.1996     0.17592E-02 
  46336.5273     0.18670E-02 
  46376.8550     0.19786E-02 
  46417.1827     0.20998E-02 
  46457.5104     0.22359E-02 
  46497.8381     0.23902E-02 
  46538.1658     0.25636E-02 
  46578.4935     0.27538E-02 
  46618.8212     0.29560E-02 
  46659.1489     0.31640E-02 
  46699.4766     0.33707E-02 
  46739.8043     0.35702E-02 
  46780.1320     0.37591E-02 
  46820.4597     0.39375E-02 
  46860.7874     0.41087E-02 
  46901.1151     0.42769E-02 
  46941.4428     0.44433E-02 
  46981.7705     0.46040E-02 
  47022.0982     0.47492E-02 
  47062.4259     0.48648E-02 
  47102.7536     0.49341E-02 
  47143.0813     0.49391E-02 
  47183.4090     0.48613E-02 
  47223.7367     0.46849E-02 
  47264.0644     0.44029E-02 
  47304.3921     0.40226E-02 
  47344.7198     0.35681E-02 
  47385.0475     0.30757E-02 
  47425.3752     0.25857E-02 
  47465.7029     0.21336E-02 
  47506.0306     0.17442E-02 
  47546.3583     0.14288E-02 
  47586.6860     0.11868E-02 
  47627.0137     0.10092E-02 
  47667.3414     0.88307E-03 
  47707.6691     0.79502E-03 
  47747.9968     0.73371E-03 
  47788.3245     0.69064E-03 
  47828.6522     0.66010E-03 
  47868.9799     0.63862E-03 
  47909.3076     0.62415E-03 
  47949.6353     0.61536E-03 
  47989.9630     0.61122E-03 
  48030.2907     0.61098E-03 
  48070.6184     0.61439E-03 
  48110.9461     0.62192E-03 
  48151.2738     0.63466E-03 
  48191.6015     0.65391E-03 
  48231.9292     0.68069E-03 
  48272.2569     0.71545E-03 
  48312.5846     0.75789E-03 
  48352.9123     0.80717E-03 
  48393.2400     0.86187E-03 
  48433.5677     0.92018E-03 
  48473.8954     0.98008E-03 
  48514.2231     0.10398E-02 
  48554.5508     0.10984E-02 
  48594.8785     0.11558E-02 
  48635.2062     0.12126E-02 
  48675.5339     0.12690E-02 
  48715.8616     0.13240E-02 
  48756.1893     0.13754E-02 
  48796.5170     0.14202E-02 
  48836.8447     0.14547E-02 
  48877.1724     0.14752E-02 
  48917.5001     0.14778E-02 
  48957.8278     0.14590E-02 
  48998.1555     0.14164E-02 
  49038.4832     0.13505E-02 
  49078.8109     0.12649E-02 
  49119.1386     0.11658E-02 
  49159.4663     0.10609E-02 
  49199.7940     0.95730E-03 
  49240.1217     0.86077E-03 
  49280.4494     0.77471E-03 
  49320.7771     0.70044E-03 
  49361.1048     0.63765E-03 
  49401.4325     0.58504E-03 
  49441.7602     0.54093E-03 
  49482.0879     0.50367E-03 
  49522.4156     0.47183E-03 
  49562.7433     0.44432E-03 
  49603.0710     0.42037E-03 
  49643.3987     0.39947E-03 
  49683.7264     0.38122E-03 
  49724.0541     0.36527E-03 
  49764.3818     0.35132E-03 
  49804.7095     0.33917E-03 
  49845.0372     0.32877E-03 
  49885.3649     0.32026E-03 
  49925.6926     0.31382E-03 
  49966.0203     0.30964E-03 
  50006.3480     0.30774E-03 
  50046.6757     0.30808E-03 
  50087.0034     0.31047E-03 
  50127.3311     0.31467E-03 
  50167.6588     0.32034E-03 
  50207.9865     0.32708E-03 
  50248.3142     0.33443E-03 
  50288.6419     0.34209E-03 
  50328.9696     0.34990E-03 
  50369.2973     0.35783E-03 
  50409.6250     0.36586E-03 
  50449.9527     0.37378E-03 
  50490.2804     0.38119E-03 
  50530.6081     0.38755E-03 
  50570.9358     0.39231E-03 
  50611.2635     0.39488E-03 
  50651.5912     0.39472E-03 
  50691.9189     0.39128E-03 
  50732.2466     0.38422E-03 
  50772.5743     0.37354E-03 
  50812.9020     0.35967E-03 
  50853.2297     0.34343E-03 
  50893.5574     0.32581E-03 
  50933.8851     0.30782E-03 
  50974.2128     0.29027E-03 
  51014.5405     0.27372E-03 
  51054.8682     0.25847E-03 
  51095.1959     0.24461E-03 
  51135.5236     0.23208E-03 
  51175.8513     0.22077E-03 
  51216.1790     0.21053E-03 
  51256.5067     0.20121E-03 
  51296.8344     0.19270E-03 
  51337.1621     0.18488E-03 
  51377.4898     0.17771E-03 
  51417.8175     0.17112E-03 
  51458.1452     0.16507E-03 
  51498.4729     0.15950E-03 
  51538.8006     0.15437E-03 
  51579.1283     0.14968E-03 
  51619.4560     0.14543E-03 
  51659.7837     0.14165E-03 
  51700.1114     0.13835E-03 
  51740.4391     0.13554E-03 
  51780.7668     0.13317E-03 
  51821.0945     0.13123E-03 
  51861.4222     0.12966E-03 
  51901.7499     0.12843E-03 
  51942.0776     0.12745E-03 
  51982.4053     0.12665E-03 
  52022.7330     0.12599E-03 
  52063.0607     0.12541E-03 
  52103.3884     0.12490E-03 
  52143.7161     0.12445E-03 
  52184.0438     0.12400E-03 
  52224.3715     0.12351E-03 
  52264.6992     0.12289E-03 
  52305.0269     0.12206E-03 
  52345.3546     0.12097E-03 
  52385.6823     0.11953E-03 
  52426.0100     0.11770E-03 
  52466.3377     0.11545E-03 
  52506.6654     0.11278E-03 
  52546.9931     0.10975E-03 
  52587.3208     0.10645E-03 
  52627.6485     0.10300E-03 
  52667.9762     0.99509E-04 
  52708.3039     0.96066E-04 
  52748.6316     0.92737E-04 
  52788.9593     0.89560E-04 
  52829.2870     0.86550E-04 
  52869.6147     0.83712E-04 
  52909.9424     0.81038E-04 
  52950.2701     0.78517E-04 
  52990.5978     0.76138E-04 
  53030.9255     0.73888E-04 
  53071.2532     0.71759E-04 
  53111.5809     0.69743E-04 
  53151.9086     0.67836E-04 
  53192.2363     0.66030E-04 
  53232.5640     0.64319E-04 
  53272.8917     0.62699E-04 
  53313.2194     0.61166E-04 
  53353.5471     0.59723E-04 
  53393.8748     0.58370E-04 
  53434.2025     0.57107E-04 
  53474.5302     0.55929E-04 
  53514.8579     0.54833E-04 
  53555.1856     0.53811E-04 
  53595.5133     0.52857E-04 
  53635.8410     0.51962E-04 
  53676.1687     0.51118E-04 
  53716.4964     0.50314E-04 
  53756.8241     0.49541E-04 
  53797.1518     0.48794E-04 
  53837.4795     0.48069E-04 
  53877.8072     0.47361E-04 
  53918.1349     0.46663E-04 
  53958.4626     0.45968E-04 
  53998.7903     0.45265E-04 
  54039.1180     0.44547E-04 
  54079.4457     0.43806E-04 
  54119.7734     0.43037E-04 
  54160.1011     0.42235E-04 
  54200.4288     0.41399E-04 
  54240.7565     0.40533E-04 
  54281.0842     0.39643E-04 
  54321.4119     0.38739E-04 
  54361.7396     0.37834E-04 
  54402.0673     0.36938E-04 
  54442.3950     0.36060E-04 
  54482.7227     0.35205E-04 
  54523.0504     0.34377E-04 
  54563.3781     0.33577E-04 
  54603.7058     0.32805E-04 
  54644.0335     0.32062E-04 
  54684.3612     0.31345E-04 
  54724.6889     0.30654E-04 
  54765.0166     0.29987E-04 
  54805.3443     0.29343E-04 
  54845.6720     0.28722E-04 
  54885.9997     0.28122E-04 
  54926.3274     0.27543E-04 
  54966.6551     0.26984E-04 
  55006.9828     0.26445E-04 
  55047.3105     0.25924E-04 
  55087.6382     0.25421E-04 
  55127.9659     0.24937E-04 
  55168.2936     0.24470E-04 
  55208.6213     0.24020E-04 
  55248.9490     0.23586E-04 
  55289.2767     0.23167E-04 
  55329.6044     0.22761E-04 
  55369.9321     0.22368E-04 
  55410.2598     0.21986E-04 
  55450.5875     0.21613E-04 
  55490.9152     0.21249E-04 
  55531.2429     0.20894E-04 
  55571.5706     0.20545E-04 
  55611.8983     0.20203E-04 
  55652.2260     0.19866E-04 
  55692.5537     0.19534E-04 
  55732.8814     0.19205E-04 
  55773.2091     0.18879E-04 
  55813.5368     0.18555E-04 
  55853.8645     0.18232E-04 
  55894.1922     0.17911E-04 
  55934.5199     0.17591E-04 
  55974.8476     0.17274E-04 
  56015.1753     0.16959E-04 
  56055.5030     0.16648E-04 
  56095.8307     0.16341E-04 
  56136.1584     0.16041E-04 
  56176.4861     0.15746E-04 
  56216.8138     0.15458E-04 
  56257.1415     0.15177E-04 
  56297.4692     0.14903E-04 
  56337.7969     0.14635E-04 
  56378.1246     0.14374E-04 
  56418.4523     0.14119E-04 
  56458.7800     0.13870E-04 
  56499.1077     0.13627E-04 
  56539.4354     0.13390E-04 
  56579.7631     0.13159E-04 
  56620.0908     0.12933E-04 
  56660.4185     0.12712E-04 
  56700.7462     0.12497E-04 
  56741.0739     0.12286E-04 
  56781.4016     0.12081E-04 
  56821.7293     0.11880E-04 
  56862.0570     0.11683E-04 
  56902.3847     0.11491E-04 
  56942.7124     0.11304E-04 
  56983.0401     0.11120E-04 
  57023.3678     0.10941E-04 
  57063.6955     0.10765E-04 
  57104.0232     0.10592E-04 
  57144.3509     0.10423E-04 
  57184.6786     0.10257E-04 
  57225.0063     0.10094E-04 
  57265.3340     0.99344E-05 
  57305.6617     0.97772E-05 
  57345.9894     0.96225E-05 
  57386.3171     0.94704E-05 
  57426.6448     0.93206E-05 
  57466.9725     0.91731E-05 
  57507.3002     0.90277E-05 
  57547.6279     0.88844E-05 
  57587.9556     0.87431E-05 
  57628.2833     0.86039E-05 
  57668.6110     0.84666E-05 
  57708.9387     0.83314E-05 
  57749.2664     0.81983E-05 
  57789.5941     0.80673E-05 
  57829.9218     0.79385E-05 
  57870.2495     0.78120E-05 
  57910.5772     0.76877E-05 
  57950.9049     0.75656E-05 
  57991.2326     0.74457E-05 
  58031.5603     0.73279E-05 
  58071.8880     0.72123E-05 
  58112.2157     0.70987E-05 
  58152.5434     0.69872E-05 
  58192.8711     0.68777E-05 
  58233.1988     0.67700E-05 
  58273.5265     0.66643E-05 
  58313.8542     0.65604E-05 
  58354.1819     0.64583E-05 
  58394.5096     0.63580E-05 
  58434.8373     0.62594E-05 
  58475.1650     0.61625E-05 
  58515.4927     0.60672E-05 
  58555.8204     0.59735E-05 
  58596.1481     0.58814E-05 
  58636.4758     0.57908E-05 
  58676.8035     0.57017E-05 
  58717.1312     0.56140E-05 
  58757.4589     0.55278E-05 
  58797.7866     0.54429E-05 
  58838.1143     0.53593E-05 
  58878.4420     0.52771E-05 
  58918.7697     0.51961E-05 
  58959.0974     0.51163E-05 
  58999.4251     0.50378E-05 
  59039.7528     0.49604E-05 
  59080.0805     0.48841E-05 
  59120.4082     0.48090E-05 
  59160.7359     0.47350E-05 
  59201.0636     0.46620E-05 
  59241.3913     0.45901E-05 
  59281.7190     0.45192E-05 
  59322.0467     0.44493E-05 
  59362.3744     0.43805E-05 
  59402.7021     0.43126E-05 
  59443.0298     0.42456E-05 
  59483.3575     0.41797E-05 
  59523.6852     0.41147E-05 
  59564.0129     0.40507E-05 
  59604.3406     0.39876E-05 
  59644.6683     0.39254E-05 
  59684.9960     0.38641E-05 
  59725.3237     0.38037E-05 
  59765.6514     0.37442E-05 
  59805.9791     0.36855E-05 
  59846.3068     0.36277E-05 
  59886.6345     0.35708E-05 
  59926.9622     0.35146E-05 
  59967.2899     0.34592E-05 
  60007.6176     0.34047E-05 
  60047.9453     0.33509E-05 
  60088.2730     0.32978E-05 
  60128.6007     0.32455E-05 
  60168.9284     0.31940E-05 
  60209.2561     0.31431E-05 
  60249.5838     0.30930E-05 
  60289.9115     0.30435E-05 
  60330.2392     0.29948E-05 
  60370.5669     0.29467E-05 
  60410.8946     0.28992E-05 
  60451.2223     0.28524E-05 
  60491.5500     0.28063E-05 
  60531.8777     0.27607E-05 
  60572.2054     0.27158E-05 
  60612.5331     0.26715E-05 
  60652.8608     0.26278E-05 
  60693.1885     0.25846E-05 
  60733.5162     0.25420E-05 
  60773.8439     0.25000E-05 
  60814.1716     0.24585E-05 
  60854.4993     0.24176E-05 
  60894.8270     0.23772E-05 
  60935.1547     0.23374E-05 
  60975.4824     0.22980E-05 
  61015.8101     0.22592E-05 
  61056.1378     0.22209E-05 
  61096.4655     0.21831E-05 
  61136.7932     0.21457E-05 
  61177.1209     0.21089E-05 
  61217.4486     0.20725E-05 
  61257.7763     0.20366E-05 
  61298.1040     0.20012E-05 
  61338.4317     0.19663E-05 
  61378.7594     0.19318E-05 
  61419.0871     0.18977E-05 
  61459.4148     0.18641E-05 
  61499.7425     0.18309E-05 
  61540.0702     0.17981E-05 
  61580.3979     0.17658E-05 
  61620.7256     0.17339E-05 
  61661.0533     0.17024E-05 
  61701.3810     0.16713E-05 
  61741.7087     0.16406E-05 
  61782.0364     0.16103E-05 
  61822.3641     0.15803E-05 
  61862.6918     0.15508E-05 
  61903.0195     0.15217E-05 
  61943.3472     0.14929E-05 
  61983.6749     0.14645E-05 
  62024.0026     0.14364E-05 
  62064.3303     0.14088E-05 
  62104.6580     0.13814E-05 
  62144.9857     0.13545E-05 
  62185.3134     0.13279E-05 
  62225.6411     0.13016E-05 
  62265.9688     0.12756E-05 
  62306.2965     0.12500E-05 
  62346.6242     0.12248E-05 
  62386.9519     0.11998E-05 
  62427.2796     0.11752E-05 
  62467.6073     0.11509E-05 
  62507.9350     0.11269E-05 
  62548.2627     0.11033E-05 
  62588.5904     0.10799E-05 
  62628.9181     0.10569E-05 
  62669.2458     0.10341E-05 
  62709.5735     0.10117E-05 
  62749.9012     0.98952E-06 
  62790.2289     0.96767E-06 
  62830.5566     0.94611E-06 
  62870.8843     0.92484E-06 
  62911.2120     0.90386E-06 
  62951.5397     0.88316E-06 
  62991.8674     0.86274E-06 
  63032.1951     0.84260E-06 
  63072.5228     0.82274E-06 
  63112.8505     0.80315E-06 
  63153.1782     0.78383E-06 
  63193.5059     0.76478E-06 
  63233.8336     0.74600E-06 
  63274.1613     0.72748E-06 
  63314.4890     0.70923E-06 
  63354.8167     0.69124E-06 
  63395.1444     0.67350E-06 
  63435.4721     0.65602E-06 
  63475.7998     0.63880E-06 
  63516.1275     0.62183E-06 
  63556.4552     0.60511E-06 
  63596.7829     0.58864E-06 
  63637.1106     0.57241E-06 
  63677.4383     0.55644E-06 
  63717.7660     0.54071E-06 
  63758.0937     0.52522E-06 
  63798.4214     0.50997E-06 
  63838.7491     0.49497E-06 
  63879.0768     0.48020E-06 
  63919.4045     0.46567E-06 
  63959.7322     0.45137E-06 
  64000.0599     0.43732E-06 
  64040.3876     0.42349E-06 
  64080.7153     0.40990E-06 
  64121.0430     0.39654E-06 
  64161.3707     0.38341E-06 
  64201.6984     0.37052E-06 
  64242.0261     0.35785E-06 
  64282.3538     0.34541E-06 
  64322.6815     0.33319E-06 
  64363.0092     0.32121E-06 
  64403.3369     0.30945E-06 
  64443.6646     0.29791E-06 
  64483.9923     0.28661E-06 
  64524.3200     0.27552E-06 
  64564.6477     0.26466E-06 
  64604.9754     0.25402E-06 
  64645.3031     0.24361E-06 
  64685.6308     0.23342E-06 
  64725.9585     0.22345E-06 
  64766.2862     0.21370E-06 
  64806.6139     0.20417E-06 
  64846.9416     0.19487E-06 
  64887.2693     0.18579E-06 
  64927.5970     0.17693E-06 
  64967.9247     0.16829E-06 
  65008.2524     0.15987E-06 
  65048.5801     0.15167E-06 
  65088.9078     0.14370E-06 
  65129.2355     0.13594E-06 
  65169.5632     0.12841E-06 
  65209.8909     0.12110E-06 
  65250.2186     0.11402E-06 
  65290.5463     0.10715E-06 
  65330.8740     0.10051E-06 
  65371.2017     0.94093E-07 
  65411.5294     0.87899E-07 
  65451.8571     0.81930E-07 
  65492.1848     0.76186E-07 
  65532.5125     0.70667E-07 
  65572.8402     0.65375E-07 
  65613.1679     0.60310E-07 
  65653.4956     0.55473E-07 
  65693.8233     0.50864E-07 
  65734.1510     0.46485E-07 
  65774.4787     0.42336E-07 
  65814.8064     0.38418E-07 
  65855.1341     0.34733E-07 
  65895.4618     0.31281E-07 
  65935.7895     0.28063E-07 
  65976.1172     0.25081E-07 
  66016.4449     0.22335E-07 
  66056.7726     0.19828E-07 
  66097.1003     0.17560E-07 
  66137.4280     0.15532E-07 
  66177.7557     0.13747E-07 
  66218.0834     0.12204E-07 
  66258.4111     0.10907E-07 
  66298.7388     0.98568E-08 
  66339.0665     0.90545E-08 
  66379.3942     0.85019E-08 
  66419.7219     0.82009E-08 
  66460.0496     0.81533E-08 
  66500.3773     0.83608E-08 
  66540.7050     0.88254E-08 
  66581.0327     0.95490E-08 
  66621.3604     0.10534E-07 
  66661.6881     0.11781E-07 
  66702.0158     0.13294E-07 
  66742.3435     0.15075E-07 
  66782.6712     0.17125E-07 
  66822.9989     0.19447E-07 
  66863.3266     0.22043E-07 
  66903.6543     0.24916E-07 
  66943.9820     0.28069E-07 
  66984.3097     0.31503E-07 
  67024.6374     0.35222E-07 
  67064.9651     0.39227E-07 
  67105.2928     0.43523E-07 
  67145.6205     0.48112E-07 
  67185.9482     0.52996E-07 
  67226.2759     0.58179E-07 
  67266.6036     0.63664E-07 
  67306.9313     0.69454E-07 
  67347.2590     0.75551E-07 
  67387.5867     0.81960E-07 
  67427.9144     0.88683E-07 
  67468.2421     0.95725E-07 
  67508.5698     0.10309E-06 
  67548.8975     0.11078E-06 
  67589.2252     0.11879E-06 
  67629.5529     0.12714E-06 
  67669.8806     0.13583E-06 
  67710.2083     0.14485E-06 
  67750.5360     0.15422E-06 
  67790.8637     0.16394E-06 
  67831.1914     0.17401E-06 
  67871.5191     0.18444E-06 
  67911.8468     0.19523E-06 
  67952.1745     0.20638E-06 
  67992.5022     0.21791E-06 
  68032.8299     0.22981E-06 
  68073.1576     0.24208E-06 
  68113.4853     0.25475E-06 
  68153.8130     0.26780E-06 
  68194.1407     0.28124E-06 
  68234.4684     0.29509E-06 
  68274.7961     0.30934E-06 
  68315.1238     0.32399E-06 
  68355.4515     0.33907E-06 
  68395.7792     0.35456E-06 
  68436.1069     0.37048E-06 
  68476.4346     0.38684E-06 
  68516.7623     0.40363E-06 
  68557.0900     0.42087E-06 
  68597.4177     0.43855E-06 
  68637.7454     0.45669E-06 
  68678.0731     0.47530E-06 
  68718.4008     0.49438E-06 
  68758.7285     0.51393E-06 
  68799.0562     0.53396E-06 
  68839.3839     0.55449E-06 
  68879.7116     0.57551E-06 
  68920.0393     0.59703E-06 
  68960.3670     0.61907E-06 
  69000.6947     0.64162E-06 
  69041.0224     0.66471E-06 
  69081.3501     0.68832E-06 
  69121.6778     0.71248E-06 
  69162.0055     0.73719E-06 
  69202.3332     0.76246E-06 
  69242.6609     0.78830E-06 
  69282.9886     0.81471E-06 
  69323.3163     0.84170E-06 
  69363.6440     0.86929E-06 
  69403.9717     0.89748E-06 
  69444.2994     0.92628E-06 
  69484.6271     0.95571E-06 
  69524.9548     0.98576E-06 
  69565.2825     0.10165E-05 
  69605.6102     0.10478E-05 
  69645.9379     0.10798E-05 
  69686.2656     0.11125E-05 
  69726.5933     0.11459E-05 
  69766.9210     0.11799E-05 
  69807.2487     0.12147E-05 
  69847.5764     0.12501E-05 
  69887.9041     0.12863E-05 
  69928.2318     0.13233E-05 
  69968.5595     0.13610E-05 
  70008.8872     0.13994E-05 
  70049.2149     0.14386E-05 
  70089.5426     0.14787E-05 
  70129.8703     0.15195E-05 
  70170.1980     0.15611E-05 
  70210.5257     0.16036E-05 
  70250.8534     0.16469E-05 
  70291.1811     0.16910E-05 
  70331.5088     0.17360E-05 
  70371.8365     0.17820E-05 
  70412.1642     0.18288E-05 
  70452.4919     0.18765E-05 
  70492.8196     0.19251E-05 
  70533.1473     0.19747E-05 
  70573.4750     0.20253E-05 
  70613.8027     0.20768E-05 
  70654.1304     0.21294E-05 
  70694.4581     0.21829E-05 
  70734.7858     0.22375E-05 
  70775.1135     0.22931E-05 
  70815.4412     0.23498E-05 
  70855.7689     0.24076E-05 
  70896.0966     0.24664E-05 
  70936.4243     0.25264E-05 
  70976.7520     0.25876E-05 
  71017.0797     0.26499E-05 
  71057.4074     0.27133E-05 
  71097.7351     0.27780E-05 
  71138.0628     0.28439E-05 
  71178.3905     0.29111E-05 
  71218.7182     0.29795E-05 
  71259.0459     0.30492E-05 
  71299.3736     0.31203E-05 
  71339.7013     0.31926E-05 
  71380.0290     0.32664E-05 
  71420.3567     0.33415E-05 
  71460.6844     0.34180E-05 
  71501.0121     0.34960E-05 
  71541.3398     0.35754E-05 
  71581.6675     0.36563E-05 
  71621.9952     0.37388E-05 
  71662.3229     0.38228E-05 
  71702.6506     0.39083E-05 
  71742.9783     0.39955E-05 
  71783.3060     0.40843E-05 
  71823.6337     0.41748E-05 
  71863.9614     0.42669E-05 
  71904.2891     0.43608E-05 
  71944.6168     0.44565E-05 
  71984.9445     0.45539E-05 
  72025.2722     0.46532E-05 
  72065.5999     0.47543E-05 
  72105.9276     0.48573E-05 
  72146.2553     0.49623E-05 
  72186.5830     0.50692E-05 
  72226.9107     0.51782E-05 
  72267.2384     0.52891E-05 
  72307.5661     0.54022E-05 
  72347.8938     0.55174E-05 
  72388.2215     0.56347E-05 
  72428.5492     0.57543E-05 
  72468.8769     0.58761E-05 
  72509.2046     0.60002E-05 
  72549.5323     0.61266E-05 
  72589.8600     0.62554E-05 
