  32262.1600     0.57507E+02 
  32302.4877     0.59132E+02 
  32342.8154     0.60809E+02 
  32383.1431     0.62540E+02 
  32423.4708     0.64327E+02 
  32463.7985     0.66172E+02 
  32504.1262     0.68077E+02 
  32544.4539     0.70045E+02 
  32584.7816     0.72077E+02 
  32625.1093     0.74176E+02 
  32665.4370     0.76345E+02 
  32705.7647     0.78587E+02 
  32746.0924     0.80904E+02 
  32786.4201     0.83299E+02 
  32826.7478     0.85776E+02 
  32867.0755     0.88337E+02 
  32907.4032     0.90987E+02 
  32947.7309     0.93727E+02 
  32988.0586     0.96563E+02 
  33028.3863     0.99498E+02 
  33068.7140     0.10254E+03 
  33109.0417     0.10568E+03 
  33149.3694     0.10894E+03 
  33189.6971     0.11231E+03 
  33230.0248     0.11581E+03 
  33270.3525     0.11943E+03 
  33310.6802     0.12318E+03 
  33351.0079     0.12708E+03 
  33391.3356     0.13111E+03 
  33431.6633     0.13530E+03 
  33471.9910     0.13964E+03 
  33512.3187     0.14414E+03 
  33552.6464     0.14882E+03 
  33592.9741     0.15367E+03 
  33633.3018     0.15871E+03 
  33673.6295     0.16394E+03 
  33713.9572     0.16938E+03 
  33754.2849     0.17503E+03 
  33794.6126     0.18091E+03 
  33834.9403     0.18701E+03 
  33875.2680     0.19337E+03 
  33915.5957     0.19998E+03 
  33955.9234     0.20686E+03 
  33996.2511     0.21402E+03 
  34036.5788     0.22147E+03 
  34076.9065     0.22924E+03 
  34117.2342     0.23733E+03 
  34157.5619     0.24577E+03 
  34197.8896     0.25456E+03 
  34238.2173     0.26373E+03 
  34278.5450     0.27331E+03 
  34318.8727     0.28330E+03 
  34359.2004     0.29373E+03 
  34399.5281     0.30462E+03 
  34439.8558     0.31601E+03 
  34480.1835     0.32791E+03 
  34520.5112     0.34036E+03 
  34560.8389     0.35338E+03 
  34601.1666     0.36701E+03 
  34641.4943     0.38128E+03 
  34681.8220     0.39623E+03 
  34722.1497     0.41190E+03 
  34762.4774     0.42833E+03 
  34802.8051     0.44556E+03 
  34843.1328     0.46365E+03 
  34883.4605     0.48265E+03 
  34923.7882     0.50261E+03 
  34964.1159     0.52359E+03 
  35004.4436     0.54565E+03 
  35044.7713     0.56888E+03 
  35085.0990     0.59333E+03 
  35125.4267     0.61909E+03 
  35165.7544     0.64626E+03 
  35206.0821     0.67492E+03 
  35246.4098     0.70517E+03 
  35286.7375     0.73713E+03 
  35327.0652     0.77092E+03 
  35367.3929     0.80666E+03 
  35407.7206     0.84450E+03 
  35448.0483     0.88459E+03 
  35488.3760     0.92710E+03 
  35528.7037     0.97222E+03 
  35569.0314     0.10201E+04 
  35609.3591     0.10711E+04 
  35649.6868     0.11253E+04 
  35690.0145     0.11831E+04 
  35730.3422     0.12446E+04 
  35770.6699     0.13103E+04 
  35810.9976     0.13806E+04 
  35851.3253     0.14557E+04 
  35891.6530     0.15361E+04 
  35931.9807     0.16224E+04 
  35972.3084     0.17150E+04 
  36012.6361     0.18145E+04 
  36052.9638     0.19217E+04 
  36093.2915     0.20372E+04 
  36133.6192     0.21619E+04 
  36173.9469     0.22969E+04 
  36214.2746     0.24430E+04 
  36254.6023     0.26016E+04 
  36294.9300     0.27739E+04 
  36335.2577     0.29617E+04 
  36375.5854     0.31666E+04 
  36415.9131     0.33907E+04 
  36456.2408     0.36362E+04 
  36496.5685     0.39060E+04 
  36536.8962     0.42030E+04 
  36577.2239     0.45309E+04 
  36617.5516     0.48937E+04 
  36657.8793     0.52961E+04 
  36698.2070     0.57439E+04 
  36738.5347     0.62433E+04 
  36778.8624     0.68018E+04 
  36819.1901     0.74280E+04 
  36859.5178     0.81316E+04 
  36899.8455     0.89240E+04 
  36940.1732     0.98175E+04 
  36980.5009     0.10826E+05 
  37020.8286     0.11962E+05 
  37061.1563     0.13239E+05 
  37101.4840     0.14667E+05 
  37141.8117     0.16248E+05 
  37182.1394     0.17971E+05 
  37222.4671     0.19801E+05 
  37262.7948     0.21673E+05 
  37303.1225     0.23481E+05 
  37343.4502     0.25077E+05 
  37383.7779     0.26287E+05 
  37424.1056     0.26952E+05 
  37464.4333     0.26979E+05 
  37504.7610     0.26388E+05 
  37545.0887     0.25318E+05 
  37585.4164     0.23990E+05 
  37625.7441     0.22647E+05 
  37666.0718     0.21490E+05 
  37706.3995     0.20653E+05 
  37746.7272     0.20195E+05 
  37787.0549     0.20109E+05 
  37827.3826     0.20342E+05 
  37867.7103     0.20806E+05 
  37908.0380     0.21404E+05 
  37948.3657     0.22047E+05 
  37988.6934     0.22666E+05 
  38029.0211     0.23219E+05 
  38069.3488     0.23685E+05 
  38109.6765     0.24058E+05 
  38150.0042     0.24340E+05 
  38190.3319     0.24533E+05 
  38230.6596     0.24645E+05 
  38270.9873     0.24690E+05 
  38311.3150     0.24697E+05 
  38351.6427     0.24710E+05 
  38391.9704     0.24789E+05 
  38432.2981     0.24987E+05 
  38472.6258     0.25348E+05 
  38512.9535     0.25891E+05 
  38553.2812     0.26601E+05 
  38593.6089     0.27427E+05 
  38633.9366     0.28276E+05 
  38674.2643     0.29007E+05 
  38714.5920     0.29459E+05 
  38754.9197     0.29479E+05 
  38795.2474     0.28974E+05 
  38835.5751     0.27964E+05 
  38875.9028     0.26612E+05 
  38916.2305     0.25223E+05 
  38956.5582     0.24179E+05 
  38996.8859     0.23837E+05 
  39037.2136     0.24409E+05 
  39077.5413     0.25905E+05 
  39117.8690     0.28125E+05 
  39158.1967     0.30724E+05 
  39198.5244     0.33303E+05 
  39238.8521     0.35507E+05 
  39279.1798     0.37100E+05 
  39319.5075     0.38002E+05 
  39359.8352     0.38275E+05 
  39400.1629     0.38076E+05 
  39440.4906     0.37606E+05 
  39480.8183     0.37050E+05 
  39521.1460     0.36552E+05 
  39561.4737     0.36203E+05 
  39601.8014     0.36043E+05 
  39642.1291     0.36079E+05 
  39682.4568     0.36300E+05 
  39722.7845     0.36697E+05 
  39763.1122     0.37273E+05 
  39803.4399     0.38034E+05 
  39843.7676     0.38973E+05 
  39884.0953     0.40053E+05 
  39924.4230     0.41204E+05 
  39964.7507     0.42322E+05 
  40005.0784     0.43283E+05 
  40045.4061     0.43955E+05 
  40085.7338     0.44218E+05 
  40126.0615     0.43984E+05 
  40166.3892     0.43229E+05 
  40206.7169     0.42000E+05 
  40247.0446     0.40415E+05 
  40287.3723     0.38656E+05 
  40327.7000     0.36934E+05 
  40368.0277     0.35456E+05 
  40408.3554     0.34377E+05 
  40448.6831     0.33753E+05 
  40489.0108     0.33513E+05 
  40529.3385     0.33480E+05 
  40569.6662     0.33427E+05 
  40609.9939     0.33150E+05 
  40650.3216     0.32546E+05 
  40690.6493     0.31645E+05 
  40730.9770     0.30593E+05 
  40771.3047     0.29591E+05 
  40811.6324     0.28821E+05 
  40851.9601     0.28392E+05 
  40892.2878     0.28326E+05 
  40932.6155     0.28560E+05 
  40972.9432     0.28981E+05 
  41013.2709     0.29463E+05 
  41053.5986     0.29904E+05 
  41093.9263     0.30242E+05 
  41134.2540     0.30468E+05 
  41174.5817     0.30614E+05 
  41214.9094     0.30730E+05 
  41255.2371     0.30867E+05 
  41295.5648     0.31054E+05 
  41335.8925     0.31294E+05 
  41376.2202     0.31562E+05 
  41416.5479     0.31818E+05 
  41456.8756     0.32023E+05 
  41497.2033     0.32149E+05 
  41537.5310     0.32188E+05 
  41577.8587     0.32150E+05 
  41618.1864     0.32060E+05 
  41658.5141     0.31948E+05 
  41698.8418     0.31844E+05 
  41739.1695     0.31767E+05 
  41779.4972     0.31718E+05 
  41819.8249     0.31677E+05 
  41860.1526     0.31600E+05 
  41900.4803     0.31431E+05 
  41940.8080     0.31115E+05 
  41981.1357     0.30614E+05 
  42021.4634     0.29920E+05 
  42061.7911     0.29060E+05 
  42102.1188     0.28099E+05 
  42142.4465     0.27127E+05 
  42182.7742     0.26232E+05 
  42223.1019     0.25477E+05 
  42263.4296     0.24879E+05 
  42303.7573     0.24409E+05 
  42344.0850     0.24007E+05 
  42384.4127     0.23609E+05 
  42424.7404     0.23168E+05 
  42465.0681     0.22672E+05 
  42505.3958     0.22141E+05 
  42545.7235     0.21614E+05 
  42586.0512     0.21132E+05 
  42626.3789     0.20725E+05 
  42666.7066     0.20407E+05 
  42707.0343     0.20171E+05 
  42747.3620     0.19998E+05 
  42787.6897     0.19860E+05 
  42828.0174     0.19730E+05 
  42868.3451     0.19592E+05 
  42908.6728     0.19437E+05 
  42949.0005     0.19271E+05 
  42989.3282     0.19104E+05 
  43029.6559     0.18949E+05 
  43069.9836     0.18816E+05 
  43110.3113     0.18706E+05 
  43150.6390     0.18614E+05 
  43190.9667     0.18530E+05 
  43231.2944     0.18439E+05 
  43271.6221     0.18329E+05 
  43311.9498     0.18189E+05 
  43352.2775     0.18013E+05 
  43392.6052     0.17803E+05 
  43432.9329     0.17562E+05 
  43473.2606     0.17302E+05 
  43513.5883     0.17034E+05 
  43553.9160     0.16770E+05 
  43594.2437     0.16513E+05 
  43634.5714     0.16264E+05 
  43674.8991     0.16014E+05 
  43715.2268     0.15753E+05 
  43755.5545     0.15467E+05 
  43795.8822     0.15150E+05 
  43836.2099     0.14802E+05 
  43876.5376     0.14432E+05 
  43916.8653     0.14055E+05 
  43957.1930     0.13689E+05 
  43997.5207     0.13348E+05 
  44037.8484     0.13036E+05 
  44078.1761     0.12752E+05 
  44118.5038     0.12487E+05 
  44158.8315     0.12231E+05 
  44199.1592     0.11977E+05 
  44239.4869     0.11721E+05 
  44279.8146     0.11467E+05 
  44320.1423     0.11218E+05 
  44360.4700     0.10979E+05 
  44400.7977     0.10755E+05 
  44441.1254     0.10549E+05 
  44481.4531     0.10361E+05 
  44521.7808     0.10186E+05 
  44562.1085     0.10023E+05 
  44602.4362     0.98646E+04 
  44642.7639     0.97087E+04 
  44683.0916     0.95531E+04 
  44723.4193     0.93973E+04 
  44763.7470     0.92425E+04 
  44804.0747     0.90900E+04 
  44844.4024     0.89414E+04 
  44884.7301     0.87974E+04 
  44925.0578     0.86577E+04 
  44965.3855     0.85214E+04 
  45005.7132     0.83870E+04 
  45046.0409     0.82523E+04 
  45086.3686     0.81153E+04 
  45126.6963     0.79745E+04 
  45167.0240     0.78289E+04 
  45207.3517     0.76790E+04 
  45247.6794     0.75263E+04 
  45288.0071     0.73727E+04 
  45328.3348     0.72203E+04 
  45368.6625     0.70708E+04 
  45408.9902     0.69246E+04 
  45449.3179     0.67813E+04 
  45489.6456     0.66394E+04 
  45529.9733     0.64974E+04 
  45570.3010     0.63541E+04 
  45610.6287     0.62094E+04 
  45650.9564     0.60644E+04 
  45691.2841     0.59210E+04 
  45731.6118     0.57811E+04 
  45771.9395     0.56462E+04 
  45812.2672     0.55170E+04 
  45852.5949     0.53931E+04 
  45892.9226     0.52737E+04 
  45933.2503     0.51577E+04 
  45973.5780     0.50443E+04 
  46013.9057     0.49332E+04 
  46054.2334     0.48243E+04 
  46094.5611     0.47181E+04 
  46134.8888     0.46149E+04 
  46175.2165     0.45152E+04 
  46215.5442     0.44190E+04 
  46255.8719     0.43264E+04 
  46296.1996     0.42371E+04 
  46336.5273     0.41505E+04 
  46376.8550     0.40660E+04 
  46417.1827     0.39832E+04 
  46457.5104     0.39019E+04 
  46497.8381     0.38219E+04 
  46538.1658     0.37431E+04 
  46578.4935     0.36656E+04 
  46618.8212     0.35895E+04 
  46659.1489     0.35150E+04 
  46699.4766     0.34419E+04 
  46739.8043     0.33703E+04 
  46780.1320     0.33001E+04 
  46820.4597     0.32310E+04 
  46860.7874     0.31628E+04 
  46901.1151     0.30952E+04 
  46941.4428     0.30282E+04 
  46981.7705     0.29619E+04 
  47022.0982     0.28962E+04 
  47062.4259     0.28316E+04 
  47102.7536     0.27681E+04 
  47143.0813     0.27060E+04 
  47183.4090     0.26453E+04 
  47223.7367     0.25860E+04 
  47264.0644     0.25279E+04 
  47304.3921     0.24708E+04 
  47344.7198     0.24147E+04 
  47385.0475     0.23596E+04 
  47425.3752     0.23055E+04 
  47465.7029     0.22526E+04 
  47506.0306     0.22010E+04 
  47546.3583     0.21509E+04 
  47586.6860     0.21022E+04 
  47627.0137     0.20549E+04 
  47667.3414     0.20088E+04 
  47707.6691     0.19639E+04 
  47747.9968     0.19201E+04 
  47788.3245     0.18774E+04 
  47828.6522     0.18356E+04 
  47868.9799     0.17949E+04 
  47909.3076     0.17552E+04 
  47949.6353     0.17165E+04 
  47989.9630     0.16788E+04 
  48030.2907     0.16421E+04 
  48070.6184     0.16063E+04 
  48110.9461     0.15714E+04 
  48151.2738     0.15373E+04 
  48191.6015     0.15039E+04 
  48231.9292     0.14713E+04 
  48272.2569     0.14393E+04 
  48312.5846     0.14080E+04 
  48352.9123     0.13774E+04 
  48393.2400     0.13474E+04 
  48433.5677     0.13181E+04 
  48473.8954     0.12894E+04 
  48514.2231     0.12613E+04 
  48554.5508     0.12339E+04 
  48594.8785     0.12070E+04 
  48635.2062     0.11807E+04 
  48675.5339     0.11549E+04 
  48715.8616     0.11297E+04 
  48756.1893     0.11050E+04 
  48796.5170     0.10808E+04 
  48836.8447     0.10571E+04 
  48877.1724     0.10339E+04 
  48917.5001     0.10113E+04 
  48957.8278     0.98928E+03 
  48998.1555     0.96775E+03 
  49038.4832     0.94671E+03 
  49078.8109     0.92615E+03 
  49119.1386     0.90606E+03 
  49159.4663     0.88643E+03 
  49199.7940     0.86726E+03 
  49240.1217     0.84855E+03 
  49280.4494     0.83030E+03 
  49320.7771     0.81250E+03 
  49361.1048     0.79514E+03 
  49401.4325     0.77821E+03 
  49441.7602     0.76169E+03 
  49482.0879     0.74557E+03 
  49522.4156     0.72983E+03 
  49562.7433     0.71446E+03 
  49603.0710     0.69945E+03 
  49643.3987     0.68480E+03 
  49683.7264     0.67049E+03 
  49724.0541     0.65652E+03 
  49764.3818     0.64289E+03 
  49804.7095     0.62957E+03 
  49845.0372     0.61656E+03 
  49885.3649     0.60385E+03 
  49925.6926     0.59143E+03 
  49966.0203     0.57929E+03 
  50006.3480     0.56742E+03 
  50046.6757     0.55582E+03 
  50087.0034     0.54448E+03 
  50127.3311     0.53339E+03 
  50167.6588     0.52256E+03 
  50207.9865     0.51196E+03 
  50248.3142     0.50160E+03 
  50288.6419     0.49148E+03 
  50328.9696     0.48159E+03 
  50369.2973     0.47191E+03 
  50409.6250     0.46246E+03 
  50449.9527     0.45321E+03 
  50490.2804     0.44417E+03 
  50530.6081     0.43533E+03 
  50570.9358     0.42669E+03 
  50611.2635     0.41824E+03 
  50651.5912     0.40999E+03 
  50691.9189     0.40192E+03 
  50732.2466     0.39404E+03 
  50772.5743     0.38634E+03 
  50812.9020     0.37881E+03 
  50853.2297     0.37145E+03 
  50893.5574     0.36425E+03 
  50933.8851     0.35722E+03 
  50974.2128     0.35034E+03 
  51014.5405     0.34362E+03 
  51054.8682     0.33705E+03 
  51095.1959     0.33063E+03 
  51135.5236     0.32435E+03 
  51175.8513     0.31821E+03 
  51216.1790     0.31221E+03 
  51256.5067     0.30634E+03 
  51296.8344     0.30060E+03 
  51337.1621     0.29498E+03 
  51377.4898     0.28949E+03 
  51417.8175     0.28412E+03 
  51458.1452     0.27886E+03 
  51498.4729     0.27371E+03 
  51538.8006     0.26868E+03 
  51579.1283     0.26375E+03 
  51619.4560     0.25893E+03 
  51659.7837     0.25422E+03 
  51700.1114     0.24960E+03 
  51740.4391     0.24508E+03 
  51780.7668     0.24065E+03 
  51821.0945     0.23632E+03 
  51861.4222     0.23208E+03 
  51901.7499     0.22792E+03 
  51942.0776     0.22385E+03 
  51982.4053     0.21987E+03 
  52022.7330     0.21597E+03 
  52063.0607     0.21215E+03 
  52103.3884     0.20841E+03 
  52143.7161     0.20475E+03 
  52184.0438     0.20116E+03 
  52224.3715     0.19764E+03 
  52264.6992     0.19420E+03 
  52305.0269     0.19083E+03 
  52345.3546     0.18752E+03 
  52385.6823     0.18428E+03 
  52426.0100     0.18111E+03 
  52466.3377     0.17800E+03 
  52506.6654     0.17495E+03 
  52546.9931     0.17197E+03 
  52587.3208     0.16904E+03 
  52627.6485     0.16617E+03 
  52667.9762     0.16336E+03 
  52708.3039     0.16060E+03 
  52748.6316     0.15790E+03 
  52788.9593     0.15525E+03 
  52829.2870     0.15265E+03 
  52869.6147     0.15010E+03 
  52909.9424     0.14760E+03 
  52950.2701     0.14515E+03 
  52990.5978     0.14275E+03 
  53030.9255     0.14039E+03 
  53071.2532     0.13808E+03 
  53111.5809     0.13581E+03 
  53151.9086     0.13358E+03 
  53192.2363     0.13139E+03 
  53232.5640     0.12925E+03 
  53272.8917     0.12714E+03 
  53313.2194     0.12508E+03 
  53353.5471     0.12305E+03 
  53393.8748     0.12106E+03 
  53434.2025     0.11910E+03 
  53474.5302     0.11718E+03 
  53514.8579     0.11530E+03 
  53555.1856     0.11345E+03 
  53595.5133     0.11163E+03 
  53635.8410     0.10985E+03 
  53676.1687     0.10810E+03 
  53716.4964     0.10637E+03 
  53756.8241     0.10468E+03 
  53797.1518     0.10302E+03 
  53837.4795     0.10139E+03 
  53877.8072     0.99785E+02 
  53918.1349     0.98209E+02 
  53958.4626     0.96660E+02 
  53998.7903     0.95138E+02 
  54039.1180     0.93642E+02 
  54079.4457     0.92172E+02 
  54119.7734     0.90727E+02 
  54160.1011     0.89306E+02 
  54200.4288     0.87909E+02 
  54240.7565     0.86536E+02 
  54281.0842     0.85186E+02 
  54321.4119     0.83858E+02 
  54361.7396     0.82552E+02 
  54402.0673     0.81268E+02 
  54442.3950     0.80005E+02 
  54482.7227     0.78763E+02 
  54523.0504     0.77541E+02 
  54563.3781     0.76338E+02 
  54603.7058     0.75156E+02 
  54644.0335     0.73992E+02 
  54684.3612     0.72847E+02 
  54724.6889     0.71720E+02 
  54765.0166     0.70611E+02 
  54805.3443     0.69520E+02 
  54845.6720     0.68446E+02 
  54885.9997     0.67389E+02 
  54926.3274     0.66348E+02 
  54966.6551     0.65323E+02 
  55006.9828     0.64315E+02 
  55047.3105     0.63322E+02 
  55087.6382     0.62344E+02 
  55127.9659     0.61381E+02 
  55168.2936     0.60433E+02 
  55208.6213     0.59499E+02 
  55248.9490     0.58579E+02 
  55289.2767     0.57674E+02 
  55329.6044     0.56781E+02 
  55369.9321     0.55902E+02 
  55410.2598     0.55037E+02 
  55450.5875     0.54184E+02 
  55490.9152     0.53343E+02 
  55531.2429     0.52515E+02 
  55571.5706     0.51700E+02 
  55611.8983     0.50896E+02 
  55652.2260     0.50104E+02 
  55692.5537     0.49323E+02 
  55732.8814     0.48553E+02 
  55773.2091     0.47795E+02 
  55813.5368     0.47047E+02 
  55853.8645     0.46311E+02 
  55894.1922     0.45584E+02 
  55934.5199     0.44868E+02 
  55974.8476     0.44162E+02 
  56015.1753     0.43466E+02 
  56055.5030     0.42780E+02 
  56095.8307     0.42104E+02 
  56136.1584     0.41436E+02 
  56176.4861     0.40778E+02 
  56216.8138     0.40130E+02 
  56257.1415     0.39490E+02 
  56297.4692     0.38859E+02 
  56337.7969     0.38236E+02 
  56378.1246     0.37622E+02 
  56418.4523     0.37017E+02 
  56458.7800     0.36420E+02 
  56499.1077     0.35830E+02 
  56539.4354     0.35249E+02 
  56579.7631     0.34676E+02 
  56620.0908     0.34110E+02 
  56660.4185     0.33552E+02 
  56700.7462     0.33001E+02 
  56741.0739     0.32458E+02 
  56781.4016     0.31922E+02 
  56821.7293     0.31393E+02 
  56862.0570     0.30871E+02 
  56902.3847     0.30356E+02 
  56942.7124     0.29847E+02 
  56983.0401     0.29346E+02 
  57023.3678     0.28851E+02 
  57063.6955     0.28362E+02 
  57104.0232     0.27880E+02 
  57144.3509     0.27404E+02 
  57184.6786     0.26934E+02 
  57225.0063     0.26470E+02 
  57265.3340     0.26013E+02 
  57305.6617     0.25561E+02 
  57345.9894     0.25115E+02 
  57386.3171     0.24675E+02 
  57426.6448     0.24241E+02 
  57466.9725     0.23812E+02 
  57507.3002     0.23388E+02 
  57547.6279     0.22971E+02 
  57587.9556     0.22558E+02 
  57628.2833     0.22151E+02 
  57668.6110     0.21749E+02 
  57708.9387     0.21352E+02 
  57749.2664     0.20960E+02 
  57789.5941     0.20573E+02 
  57829.9218     0.20191E+02 
  57870.2495     0.19814E+02 
  57910.5772     0.19442E+02 
  57950.9049     0.19075E+02 
  57991.2326     0.18712E+02 
  58031.5603     0.18354E+02 
  58071.8880     0.18001E+02 
  58112.2157     0.17652E+02 
  58152.5434     0.17307E+02 
  58192.8711     0.16967E+02 
  58233.1988     0.16631E+02 
  58273.5265     0.16300E+02 
  58313.8542     0.15973E+02 
  58354.1819     0.15650E+02 
  58394.5096     0.15331E+02 
  58434.8373     0.15017E+02 
  58475.1650     0.14706E+02 
  58515.4927     0.14400E+02 
  58555.8204     0.14097E+02 
  58596.1481     0.13799E+02 
  58636.4758     0.13504E+02 
  58676.8035     0.13213E+02 
  58717.1312     0.12926E+02 
  58757.4589     0.12643E+02 
  58797.7866     0.12363E+02 
  58838.1143     0.12088E+02 
  58878.4420     0.11816E+02 
  58918.7697     0.11547E+02 
  58959.0974     0.11282E+02 
  58999.4251     0.11021E+02 
  59039.7528     0.10763E+02 
  59080.0805     0.10509E+02 
  59120.4082     0.10259E+02 
  59160.7359     0.10011E+02 
  59201.0636     0.97674E+01 
  59241.3913     0.95270E+01 
  59281.7190     0.92899E+01 
  59322.0467     0.90562E+01 
  59362.3744     0.88258E+01 
  59402.7021     0.85987E+01 
  59443.0298     0.83748E+01 
  59483.3575     0.81542E+01 
  59523.6852     0.79368E+01 
  59564.0129     0.77226E+01 
  59604.3406     0.75116E+01 
  59644.6683     0.73037E+01 
  59684.9960     0.70990E+01 
  59725.3237     0.68974E+01 
  59765.6514     0.66989E+01 
  59805.9791     0.65035E+01 
  59846.3068     0.63112E+01 
  59886.6345     0.61219E+01 
  59926.9622     0.59357E+01 
  59967.2899     0.57524E+01 
  60007.6176     0.55722E+01 
  60047.9453     0.53950E+01 
  60088.2730     0.52208E+01 
  60128.6007     0.50495E+01 
  60168.9284     0.48812E+01 
  60209.2561     0.47158E+01 
  60249.5838     0.45534E+01 
  60289.9115     0.43939E+01 
  60330.2392     0.42373E+01 
  60370.5669     0.40836E+01 
  60410.8946     0.39328E+01 
  60451.2223     0.37850E+01 
  60491.5500     0.36400E+01 
  60531.8777     0.34979E+01 
  60572.2054     0.33586E+01 
  60612.5331     0.32223E+01 
  60652.8608     0.30888E+01 
  60693.1885     0.29582E+01 
  60733.5162     0.28305E+01 
  60773.8439     0.27056E+01 
  60814.1716     0.25835E+01 
  60854.4993     0.24644E+01 
  60894.8270     0.23481E+01 
  60935.1547     0.22346E+01 
  60975.4824     0.21240E+01 
  61015.8101     0.20163E+01 
  61056.1378     0.19114E+01 
  61096.4655     0.18094E+01 
  61136.7932     0.17103E+01 
  61177.1209     0.16141E+01 
  61217.4486     0.15207E+01 
  61257.7763     0.14302E+01 
  61298.1040     0.13426E+01 
  61338.4317     0.12579E+01 
  61378.7594     0.11761E+01 
  61419.0871     0.10972E+01 
  61459.4148     0.10212E+01 
  61499.7425     0.94821E+00 
  61540.0702     0.87811E+00 
  61580.3979     0.81096E+00 
  61620.7256     0.74677E+00 
  61661.0533     0.68554E+00 
  61701.3810     0.62730E+00 
  61741.7087     0.57206E+00 
  61782.0364     0.51983E+00 
  61822.3641     0.47062E+00 
  61862.6918     0.42444E+00 
  61903.0195     0.38132E+00 
  61943.3472     0.34127E+00 
  61983.6749     0.30431E+00 
  62024.0026     0.27045E+00 
  62064.3303     0.23971E+00 
  62104.6580     0.21212E+00 
  62144.9857     0.18768E+00 
  62185.3134     0.16642E+00 
  62225.6411     0.14837E+00 
  62265.9688     0.13354E+00 
  62306.2965     0.12195E+00 
  62346.6242     0.11364E+00 
  62386.9519     0.10862E+00 
  62427.2796     0.10691E+00 
  62467.6073     0.10855E+00 
  62507.9350     0.11356E+00 
  62548.2627     0.12196E+00 
  62588.5904     0.13379E+00 
  62628.9181     0.14907E+00 
  62669.2458     0.16783E+00 
  62709.5735     0.19011E+00 
  62749.9012     0.21592E+00 
  62790.2289     0.24532E+00 
  62830.5566     0.27832E+00 
  62870.8843     0.31496E+00 
  62911.2120     0.35528E+00 
  62951.5397     0.39930E+00 
  62991.8674     0.44708E+00 
  63032.1951     0.49864E+00 
  63072.5228     0.55402E+00 
  63112.8505     0.61326E+00 
  63153.1782     0.67641E+00 
  63193.5059     0.74349E+00 
  63233.8336     0.81456E+00 
  63274.1613     0.88965E+00 
  63314.4890     0.96882E+00 
  63354.8167     0.10521E+01 
  63395.1444     0.11395E+01 
  63435.4721     0.12312E+01 
  63475.7998     0.13271E+01 
  63516.1275     0.14273E+01 
  63556.4552     0.15319E+01 
  63596.7829     0.16408E+01 
  63637.1106     0.17543E+01 
  63677.4383     0.18722E+01 
  63717.7660     0.19947E+01 
  63758.0937     0.21218E+01 
  63798.4214     0.22536E+01 
  63838.7491     0.23902E+01 
  63879.0768     0.25315E+01 
  63919.4045     0.26777E+01 
  63959.7322     0.28288E+01 
  64000.0599     0.29849E+01 
  64040.3876     0.31461E+01 
  64080.7153     0.33123E+01 
  64121.0430     0.34838E+01 
  64161.3707     0.36604E+01 
  64201.6984     0.38425E+01 
  64242.0261     0.40299E+01 
  64282.3538     0.42227E+01 
  64322.6815     0.44211E+01 
  64363.0092     0.46251E+01 
  64403.3369     0.48349E+01 
  64443.6646     0.50503E+01 
  64483.9923     0.52717E+01 
  64524.3200     0.54989E+01 
  64564.6477     0.57322E+01 
  64604.9754     0.59716E+01 
  64645.3031     0.62172E+01 
  64685.6308     0.64691E+01 
  64725.9585     0.67273E+01 
  64766.2862     0.69921E+01 
  64806.6139     0.72633E+01 
  64846.9416     0.75413E+01 
  64887.2693     0.78260E+01 
  64927.5970     0.81175E+01 
  64967.9247     0.84160E+01 
  65008.2524     0.87216E+01 
  65048.5801     0.90343E+01 
  65088.9078     0.93544E+01 
  65129.2355     0.96818E+01 
  65169.5632     0.10017E+02 
  65209.8909     0.10359E+02 
  65250.2186     0.10710E+02 
  65290.5463     0.11068E+02 
  65330.8740     0.11434E+02 
  65371.2017     0.11808E+02 
  65411.5294     0.12191E+02 
  65451.8571     0.12581E+02 
  65492.1848     0.12981E+02 
  65532.5125     0.13389E+02 
  65572.8402     0.13805E+02 
  65613.1679     0.14231E+02 
  65653.4956     0.14666E+02 
  65693.8233     0.15110E+02 
  65734.1510     0.15563E+02 
  65774.4787     0.16026E+02 
  65814.8064     0.16498E+02 
  65855.1341     0.16980E+02 
  65895.4618     0.17473E+02 
  65935.7895     0.17975E+02 
  65976.1172     0.18488E+02 
  66016.4449     0.19011E+02 
  66056.7726     0.19545E+02 
  66097.1003     0.20089E+02 
  66137.4280     0.20645E+02 
  66177.7557     0.21212E+02 
  66218.0834     0.21790E+02 
  66258.4111     0.22380E+02 
  66298.7388     0.22982E+02 
  66339.0665     0.23595E+02 
  66379.3942     0.24221E+02 
  66419.7219     0.24859E+02 
  66460.0496     0.25510E+02 
  66500.3773     0.26174E+02 
  66540.7050     0.26851E+02 
  66581.0327     0.27541E+02 
  66621.3604     0.28244E+02 
  66661.6881     0.28961E+02 
  66702.0158     0.29693E+02 
  66742.3435     0.30438E+02 
  66782.6712     0.31198E+02 
  66822.9989     0.31973E+02 
  66863.3266     0.32763E+02 
  66903.6543     0.33568E+02 
  66943.9820     0.34388E+02 
  66984.3097     0.35225E+02 
  67024.6374     0.36077E+02 
  67064.9651     0.36946E+02 
  67105.2928     0.37832E+02 
  67145.6205     0.38734E+02 
  67185.9482     0.39654E+02 
  67226.2759     0.40592E+02 
  67266.6036     0.41547E+02 
  67306.9313     0.42521E+02 
  67347.2590     0.43514E+02 
  67387.5867     0.44525E+02 
  67427.9144     0.45556E+02 
  67468.2421     0.46606E+02 
  67508.5698     0.47676E+02 
  67548.8975     0.48767E+02 
  67589.2252     0.49878E+02 
  67629.5529     0.51011E+02 
  67669.8806     0.52165E+02 
  67710.2083     0.53342E+02 
  67750.5360     0.54540E+02 
  67790.8637     0.55761E+02 
  67831.1914     0.57006E+02 
  67871.5191     0.58274E+02 
  67911.8468     0.59567E+02 
  67952.1745     0.60884E+02 
  67992.5022     0.62226E+02 
  68032.8299     0.63594E+02 
  68073.1576     0.64987E+02 
  68113.4853     0.66407E+02 
  68153.8130     0.67855E+02 
  68194.1407     0.69330E+02 
  68234.4684     0.70833E+02 
  68274.7961     0.72364E+02 
  68315.1238     0.73925E+02 
  68355.4515     0.75516E+02 
  68395.7792     0.77137E+02 
  68436.1069     0.78789E+02 
  68476.4346     0.80472E+02 
  68516.7623     0.82188E+02 
  68557.0900     0.83937E+02 
  68597.4177     0.85719E+02 
  68637.7454     0.87536E+02 
  68678.0731     0.89387E+02 
  68718.4008     0.91274E+02 
  68758.7285     0.93197E+02 
  68799.0562     0.95157E+02 
  68839.3839     0.97155E+02 
  68879.7116     0.99192E+02 
  68920.0393     0.10127E+03 
  68960.3670     0.10338E+03 
  69000.6947     0.10554E+03 
  69041.0224     0.10774E+03 
  69081.3501     0.10998E+03 
  69121.6778     0.11227E+03 
  69162.0055     0.11459E+03 
  69202.3332     0.11697E+03 
  69242.6609     0.11939E+03 
  69282.9886     0.12186E+03 
  69323.3163     0.12438E+03 
  69363.6440     0.12694E+03 
  69403.9717     0.12956E+03 
  69444.2994     0.13223E+03 
  69484.6271     0.13495E+03 
  69524.9548     0.13772E+03 
  69565.2825     0.14055E+03 
  69605.6102     0.14343E+03 
  69645.9379     0.14637E+03 
  69686.2656     0.14937E+03 
  69726.5933     0.15243E+03 
  69766.9210     0.15555E+03 
  69807.2487     0.15874E+03 
  69847.5764     0.16198E+03 
  69887.9041     0.16529E+03 
  69928.2318     0.16867E+03 
  69968.5595     0.17212E+03 
  70008.8872     0.17563E+03 
  70049.2149     0.17922E+03 
  70089.5426     0.18287E+03 
  70129.8703     0.18661E+03 
  70170.1980     0.19041E+03 
  70210.5257     0.19430E+03 
  70250.8534     0.19826E+03 
  70291.1811     0.20231E+03 
  70331.5088     0.20643E+03 
  70371.8365     0.21065E+03 
  70412.1642     0.21495E+03 
  70452.4919     0.21933E+03 
  70492.8196     0.22381E+03 
  70533.1473     0.22838E+03 
  70573.4750     0.23305E+03 
  70613.8027     0.23781E+03 
  70654.1304     0.24267E+03 
  70694.4581     0.24763E+03 
  70734.7858     0.25270E+03 
  70775.1135     0.25787E+03 
  70815.4412     0.26315E+03 
  70855.7689     0.26854E+03 
  70896.0966     0.27405E+03 
  70936.4243     0.27967E+03 
  70976.7520     0.28542E+03 
  71017.0797     0.29128E+03 
  71057.4074     0.29727E+03 
  71097.7351     0.30339E+03 
  71138.0628     0.30964E+03 
  71178.3905     0.31602E+03 
  71218.7182     0.32254E+03 
  71259.0459     0.32921E+03 
  71299.3736     0.33601E+03 
  71339.7013     0.34297E+03 
  71380.0290     0.35008E+03 
  71420.3567     0.35734E+03 
  71460.6844     0.36476E+03 
  71501.0121     0.37235E+03 
  71541.3398     0.38010E+03 
  71581.6675     0.38802E+03 
  71621.9952     0.39612E+03 
  71662.3229     0.40440E+03 
  71702.6506     0.41287E+03 
  71742.9783     0.42152E+03 
  71783.3060     0.43037E+03 
  71823.6337     0.43942E+03 
  71863.9614     0.44867E+03 
  71904.2891     0.45813E+03 
  71944.6168     0.46781E+03 
  71984.9445     0.47771E+03 
  72025.2722     0.48784E+03 
  72065.5999     0.49819E+03 
  72105.9276     0.50879E+03 
  72146.2553     0.51963E+03 
  72186.5830     0.53073E+03 
  72226.9107     0.54208E+03 
  72267.2384     0.55370E+03 
  72307.5661     0.56559E+03 
  72347.8938     0.57775E+03 
  72388.2215     0.59021E+03 
  72428.5492     0.60296E+03 
  72468.8769     0.61602E+03 
  72509.2046     0.62938E+03 
  72549.5323     0.64307E+03 
  72589.8600     0.65708E+03 
