  32262.1600     0.34291E+02 
  32302.4877     0.35298E+02 
  32342.8154     0.36339E+02 
  32383.1431     0.37416E+02 
  32423.4708     0.38529E+02 
  32463.7985     0.39680E+02 
  32504.1262     0.40870E+02 
  32544.4539     0.42102E+02 
  32584.7816     0.43377E+02 
  32625.1093     0.44696E+02 
  32665.4370     0.46062E+02 
  32705.7647     0.47476E+02 
  32746.0924     0.48940E+02 
  32786.4201     0.50457E+02 
  32826.7478     0.52029E+02 
  32867.0755     0.53657E+02 
  32907.4032     0.55345E+02 
  32947.7309     0.57095E+02 
  32988.0586     0.58909E+02 
  33028.3863     0.60791E+02 
  33068.7140     0.62743E+02 
  33109.0417     0.64769E+02 
  33149.3694     0.66872E+02 
  33189.6971     0.69055E+02 
  33230.0248     0.71321E+02 
  33270.3525     0.73676E+02 
  33310.6802     0.76122E+02 
  33351.0079     0.78664E+02 
  33391.3356     0.81307E+02 
  33431.6633     0.84055E+02 
  33471.9910     0.86913E+02 
  33512.3187     0.89886E+02 
  33552.6464     0.92980E+02 
  33592.9741     0.96202E+02 
  33633.3018     0.99556E+02 
  33673.6295     0.10305E+03 
  33713.9572     0.10669E+03 
  33754.2849     0.11049E+03 
  33794.6126     0.11444E+03 
  33834.9403     0.11857E+03 
  33875.2680     0.12287E+03 
  33915.5957     0.12737E+03 
  33955.9234     0.13206E+03 
  33996.2511     0.13696E+03 
  34036.5788     0.14208E+03 
  34076.9065     0.14743E+03 
  34117.2342     0.15303E+03 
  34157.5619     0.15889E+03 
  34197.8896     0.16501E+03 
  34238.2173     0.17143E+03 
  34278.5450     0.17815E+03 
  34318.8727     0.18519E+03 
  34359.2004     0.19257E+03 
  34399.5281     0.20032E+03 
  34439.8558     0.20844E+03 
  34480.1835     0.21697E+03 
  34520.5112     0.22593E+03 
  34560.8389     0.23535E+03 
  34601.1666     0.24525E+03 
  34641.4943     0.25567E+03 
  34681.8220     0.26664E+03 
  34722.1497     0.27819E+03 
  34762.4774     0.29036E+03 
  34802.8051     0.30320E+03 
  34843.1328     0.31675E+03 
  34883.4605     0.33105E+03 
  34923.7882     0.34616E+03 
  34964.1159     0.36214E+03 
  35004.4436     0.37905E+03 
  35044.7713     0.39695E+03 
  35085.0990     0.41592E+03 
  35125.4267     0.43603E+03 
  35165.7544     0.45738E+03 
  35206.0821     0.48005E+03 
  35246.4098     0.50416E+03 
  35286.7375     0.52981E+03 
  35327.0652     0.55713E+03 
  35367.3929     0.58625E+03 
  35407.7206     0.61732E+03 
  35448.0483     0.65052E+03 
  35488.3760     0.68601E+03 
  35528.7037     0.72400E+03 
  35569.0314     0.76473E+03 
  35609.3591     0.80842E+03 
  35649.6868     0.85536E+03 
  35690.0145     0.90585E+03 
  35730.3422     0.96025E+03 
  35770.6699     0.10189E+04 
  35810.9976     0.10823E+04 
  35851.3253     0.11509E+04 
  35891.6530     0.12252E+04 
  35931.9807     0.13058E+04 
  35972.3084     0.13935E+04 
  36012.6361     0.14890E+04 
  36052.9638     0.15933E+04 
  36093.2915     0.17073E+04 
  36133.6192     0.18323E+04 
  36173.9469     0.19695E+04 
  36214.2746     0.21205E+04 
  36254.6023     0.22872E+04 
  36294.9300     0.24716E+04 
  36335.2577     0.26761E+04 
  36375.5854     0.29036E+04 
  36415.9131     0.31574E+04 
  36456.2408     0.34413E+04 
  36496.5685     0.37600E+04 
  36536.8962     0.41189E+04 
  36577.2239     0.45243E+04 
  36617.5516     0.49840E+04 
  36657.8793     0.55069E+04 
  36698.2070     0.61038E+04 
  36738.5347     0.67873E+04 
  36778.8624     0.75725E+04 
  36819.1901     0.84766E+04 
  36859.5178     0.95196E+04 
  36899.8455     0.10724E+05 
  36940.1732     0.12112E+05 
  36980.5009     0.13708E+05 
  37020.8286     0.15529E+05 
  37061.1563     0.17584E+05 
  37101.4840     0.19863E+05 
  37141.8117     0.22325E+05 
  37182.1394     0.24890E+05 
  37222.4671     0.27437E+05 
  37262.7948     0.29803E+05 
  37303.1225     0.31808E+05 
  37343.4502     0.33278E+05 
  37383.7779     0.34071E+05 
  37424.1056     0.34104E+05 
  37464.4333     0.33354E+05 
  37504.7610     0.31856E+05 
  37545.0887     0.29694E+05 
  37585.4164     0.26982E+05 
  37625.7441     0.23858E+05 
  37666.0718     0.20473E+05 
  37706.3995     0.16991E+05 
  37746.7272     0.13588E+05 
  37787.0549     0.10439E+05 
  37827.3826     0.77008E+04 
  37867.7103     0.54949E+04 
  37908.0380     0.38861E+04 
  37948.3657     0.28758E+04 
  37988.6934     0.24049E+04 
  38029.0211     0.23673E+04 
  38069.3488     0.26301E+04 
  38109.6765     0.30565E+04 
  38150.0042     0.35279E+04 
  38190.3319     0.39609E+04 
  38230.6596     0.43174E+04 
  38270.9873     0.46069E+04 
  38311.3150     0.48816E+04 
  38351.6427     0.52262E+04 
  38391.9704     0.57441E+04 
  38432.2981     0.65408E+04 
  38472.6258     0.77077E+04 
  38512.9535     0.93072E+04 
  38553.2812     0.11362E+05 
  38593.6089     0.13849E+05 
  38633.9366     0.16698E+05 
  38674.2643     0.19800E+05 
  38714.5920     0.23015E+05 
  38754.9197     0.26197E+05 
  38795.2474     0.29206E+05 
  38835.5751     0.31929E+05 
  38875.9028     0.34284E+05 
  38916.2305     0.36220E+05 
  38956.5582     0.37704E+05 
  38996.8859     0.38715E+05 
  39037.2136     0.39238E+05 
  39077.5413     0.39262E+05 
  39117.8690     0.38797E+05 
  39158.1967     0.37874E+05 
  39198.5244     0.36558E+05 
  39238.8521     0.34936E+05 
  39279.1798     0.33104E+05 
  39319.5075     0.31147E+05 
  39359.8352     0.29125E+05 
  39400.1629     0.27068E+05 
  39440.4906     0.24981E+05 
  39480.8183     0.22862E+05 
  39521.1460     0.20715E+05 
  39561.4737     0.18565E+05 
  39601.8014     0.16456E+05 
  39642.1291     0.14448E+05 
  39682.4568     0.12604E+05 
  39722.7845     0.10979E+05 
  39763.1122     0.96110E+04 
  39803.4399     0.85206E+04 
  39843.7676     0.77065E+04 
  39884.0953     0.71517E+04 
  39924.4230     0.68282E+04 
  39964.7507     0.67034E+04 
  40005.0784     0.67452E+04 
  40045.4061     0.69260E+04 
  40085.7338     0.72251E+04 
  40126.0615     0.76294E+04 
  40166.3892     0.81335E+04 
  40206.7169     0.87378E+04 
  40247.0446     0.94463E+04 
  40287.3723     0.10263E+05 
  40327.7000     0.11190E+05 
  40368.0277     0.12218E+05 
  40408.3554     0.13333E+05 
  40448.6831     0.14505E+05 
  40489.0108     0.15696E+05 
  40529.3385     0.16864E+05 
  40569.6662     0.17968E+05 
  40609.9939     0.18973E+05 
  40650.3216     0.19854E+05 
  40690.6493     0.20593E+05 
  40730.9770     0.21174E+05 
  40771.3047     0.21585E+05 
  40811.6324     0.21811E+05 
  40851.9601     0.21839E+05 
  40892.2878     0.21662E+05 
  40932.6155     0.21287E+05 
  40972.9432     0.20733E+05 
  41013.2709     0.20036E+05 
  41053.5986     0.19238E+05 
  41093.9263     0.18381E+05 
  41134.2540     0.17501E+05 
  41174.5817     0.16620E+05 
  41214.9094     0.15752E+05 
  41255.2371     0.14900E+05 
  41295.5648     0.14065E+05 
  41335.8925     0.13249E+05 
  41376.2202     0.12458E+05 
  41416.5479     0.11699E+05 
  41456.8756     0.10985E+05 
  41497.2033     0.10326E+05 
  41537.5310     0.97341E+04 
  41577.8587     0.92161E+04 
  41618.1864     0.87770E+04 
  41658.5141     0.84181E+04 
  41698.8418     0.81379E+04 
  41739.1695     0.79326E+04 
  41779.4972     0.77969E+04 
  41819.8249     0.77243E+04 
  41860.1526     0.77078E+04 
  41900.4803     0.77404E+04 
  41940.8080     0.78150E+04 
  41981.1357     0.79253E+04 
  42021.4634     0.80656E+04 
  42061.7911     0.82306E+04 
  42102.1188     0.84153E+04 
  42142.4465     0.86139E+04 
  42182.7742     0.88196E+04 
  42223.1019     0.90239E+04 
  42263.4296     0.92176E+04 
  42303.7573     0.93917E+04 
  42344.0850     0.95390E+04 
  42384.4127     0.96546E+04 
  42424.7404     0.97364E+04 
  42465.0681     0.97843E+04 
  42505.3958     0.97986E+04 
  42545.7235     0.97793E+04 
  42586.0512     0.97253E+04 
  42626.3789     0.96346E+04 
  42666.7066     0.95057E+04 
  42707.0343     0.93388E+04 
  42747.3620     0.91369E+04 
  42787.6897     0.89054E+04 
  42828.0174     0.86519E+04 
  42868.3451     0.83844E+04 
  42908.6728     0.81103E+04 
  42949.0005     0.78352E+04 
  42989.3282     0.75632E+04 
  43029.6559     0.72967E+04 
  43069.9836     0.70373E+04 
  43110.3113     0.67863E+04 
  43150.6390     0.65448E+04 
  43190.9667     0.63143E+04 
  43231.2944     0.60965E+04 
  43271.6221     0.58927E+04 
  43311.9498     0.57044E+04 
  43352.2775     0.55324E+04 
  43392.6052     0.53773E+04 
  43432.9329     0.52390E+04 
  43473.2606     0.51172E+04 
  43513.5883     0.50109E+04 
  43553.9160     0.49190E+04 
  43594.2437     0.48402E+04 
  43634.5714     0.47729E+04 
  43674.8991     0.47154E+04 
  43715.2268     0.46661E+04 
  43755.5545     0.46233E+04 
  43795.8822     0.45859E+04 
  43836.2099     0.45525E+04 
  43876.5376     0.45221E+04 
  43916.8653     0.44934E+04 
  43957.1930     0.44652E+04 
  43997.5207     0.44360E+04 
  44037.8484     0.44041E+04 
  44078.1761     0.43682E+04 
  44118.5038     0.43273E+04 
  44158.8315     0.42809E+04 
  44199.1592     0.42290E+04 
  44239.4869     0.41719E+04 
  44279.8146     0.41102E+04 
  44320.1423     0.40442E+04 
  44360.4700     0.39741E+04 
  44400.7977     0.39000E+04 
  44441.1254     0.38220E+04 
  44481.4531     0.37403E+04 
  44521.7808     0.36553E+04 
  44562.1085     0.35679E+04 
  44602.4362     0.34789E+04 
  44642.7639     0.33895E+04 
  44683.0916     0.33004E+04 
  44723.4193     0.32126E+04 
  44763.7470     0.31264E+04 
  44804.0747     0.30425E+04 
  44844.4024     0.29609E+04 
  44884.7301     0.28820E+04 
  44925.0578     0.28059E+04 
  44965.3855     0.27327E+04 
  45005.7132     0.26627E+04 
  45046.0409     0.25958E+04 
  45086.3686     0.25321E+04 
  45126.6963     0.24716E+04 
  45167.0240     0.24144E+04 
  45207.3517     0.23603E+04 
  45247.6794     0.23091E+04 
  45288.0071     0.22606E+04 
  45328.3348     0.22147E+04 
  45368.6625     0.21711E+04 
  45408.9902     0.21295E+04 
  45449.3179     0.20896E+04 
  45489.6456     0.20511E+04 
  45529.9733     0.20139E+04 
  45570.3010     0.19776E+04 
  45610.6287     0.19422E+04 
  45650.9564     0.19075E+04 
  45691.2841     0.18734E+04 
  45731.6118     0.18397E+04 
  45771.9395     0.18062E+04 
  45812.2672     0.17728E+04 
  45852.5949     0.17394E+04 
  45892.9226     0.17058E+04 
  45933.2503     0.16720E+04 
  45973.5780     0.16381E+04 
  46013.9057     0.16042E+04 
  46054.2334     0.15703E+04 
  46094.5611     0.15364E+04 
  46134.8888     0.15027E+04 
  46175.2165     0.14692E+04 
  46215.5442     0.14358E+04 
  46255.8719     0.14028E+04 
  46296.1996     0.13700E+04 
  46336.5273     0.13377E+04 
  46376.8550     0.13058E+04 
  46417.1827     0.12745E+04 
  46457.5104     0.12439E+04 
  46497.8381     0.12140E+04 
  46538.1658     0.11848E+04 
  46578.4935     0.11564E+04 
  46618.8212     0.11288E+04 
  46659.1489     0.11020E+04 
  46699.4766     0.10760E+04 
  46739.8043     0.10508E+04 
  46780.1320     0.10264E+04 
  46820.4597     0.10028E+04 
  46860.7874     0.97990E+03 
  46901.1151     0.95774E+03 
  46941.4428     0.93628E+03 
  46981.7705     0.91549E+03 
  47022.0982     0.89535E+03 
  47062.4259     0.87581E+03 
  47102.7536     0.85683E+03 
  47143.0813     0.83838E+03 
  47183.4090     0.82042E+03 
  47223.7367     0.80290E+03 
  47264.0644     0.78579E+03 
  47304.3921     0.76907E+03 
  47344.7198     0.75270E+03 
  47385.0475     0.73667E+03 
  47425.3752     0.72097E+03 
  47465.7029     0.70557E+03 
  47506.0306     0.69045E+03 
  47546.3583     0.67561E+03 
  47586.6860     0.66102E+03 
  47627.0137     0.64668E+03 
  47667.3414     0.63258E+03 
  47707.6691     0.61871E+03 
  47747.9968     0.60509E+03 
  47788.3245     0.59170E+03 
  47828.6522     0.57857E+03 
  47868.9799     0.56569E+03 
  47909.3076     0.55306E+03 
  47949.6353     0.54069E+03 
  47989.9630     0.52858E+03 
  48030.2907     0.51672E+03 
  48070.6184     0.50512E+03 
  48110.9461     0.49378E+03 
  48151.2738     0.48270E+03 
  48191.6015     0.47189E+03 
  48231.9292     0.46135E+03 
  48272.2569     0.45106E+03 
  48312.5846     0.44104E+03 
  48352.9123     0.43127E+03 
  48393.2400     0.42176E+03 
  48433.5677     0.41249E+03 
  48473.8954     0.40346E+03 
  48514.2231     0.39467E+03 
  48554.5508     0.38610E+03 
  48594.8785     0.37775E+03 
  48635.2062     0.36962E+03 
  48675.5339     0.36169E+03 
  48715.8616     0.35397E+03 
  48756.1893     0.34643E+03 
  48796.5170     0.33909E+03 
  48836.8447     0.33192E+03 
  48877.1724     0.32492E+03 
  48917.5001     0.31809E+03 
  48957.8278     0.31142E+03 
  48998.1555     0.30489E+03 
  49038.4832     0.29852E+03 
  49078.8109     0.29229E+03 
  49119.1386     0.28620E+03 
  49159.4663     0.28024E+03 
  49199.7940     0.27442E+03 
  49240.1217     0.26872E+03 
  49280.4494     0.26315E+03 
  49320.7771     0.25770E+03 
  49361.1048     0.25236E+03 
  49401.4325     0.24715E+03 
  49441.7602     0.24204E+03 
  49482.0879     0.23705E+03 
  49522.4156     0.23217E+03 
  49562.7433     0.22739E+03 
  49603.0710     0.22273E+03 
  49643.3987     0.21817E+03 
  49683.7264     0.21371E+03 
  49724.0541     0.20935E+03 
  49764.3818     0.20510E+03 
  49804.7095     0.20094E+03 
  49845.0372     0.19687E+03 
  49885.3649     0.19291E+03 
  49925.6926     0.18903E+03 
  49966.0203     0.18524E+03 
  50006.3480     0.18155E+03 
  50046.6757     0.17794E+03 
  50087.0034     0.17441E+03 
  50127.3311     0.17096E+03 
  50167.6588     0.16760E+03 
  50207.9865     0.16431E+03 
  50248.3142     0.16110E+03 
  50288.6419     0.15797E+03 
  50328.9696     0.15490E+03 
  50369.2973     0.15191E+03 
  50409.6250     0.14898E+03 
  50449.9527     0.14612E+03 
  50490.2804     0.14332E+03 
  50530.6081     0.14059E+03 
  50570.9358     0.13791E+03 
  50611.2635     0.13530E+03 
  50651.5912     0.13274E+03 
  50691.9189     0.13024E+03 
  50732.2466     0.12779E+03 
  50772.5743     0.12540E+03 
  50812.9020     0.12306E+03 
  50853.2297     0.12076E+03 
  50893.5574     0.11852E+03 
  50933.8851     0.11633E+03 
  50974.2128     0.11418E+03 
  51014.5405     0.11207E+03 
  51054.8682     0.11002E+03 
  51095.1959     0.10800E+03 
  51135.5236     0.10603E+03 
  51175.8513     0.10410E+03 
  51216.1790     0.10221E+03 
  51256.5067     0.10036E+03 
  51296.8344     0.98549E+02 
  51337.1621     0.96776E+02 
  51377.4898     0.95041E+02 
  51417.8175     0.93341E+02 
  51458.1452     0.91678E+02 
  51498.4729     0.90049E+02 
  51538.8006     0.88455E+02 
  51579.1283     0.86893E+02 
  51619.4560     0.85364E+02 
  51659.7837     0.83866E+02 
  51700.1114     0.82400E+02 
  51740.4391     0.80963E+02 
  51780.7668     0.79556E+02 
  51821.0945     0.78178E+02 
  51861.4222     0.76828E+02 
  51901.7499     0.75505E+02 
  51942.0776     0.74209E+02 
  51982.4053     0.72939E+02 
  52022.7330     0.71694E+02 
  52063.0607     0.70474E+02 
  52103.3884     0.69278E+02 
  52143.7161     0.68106E+02 
  52184.0438     0.66957E+02 
  52224.3715     0.65830E+02 
  52264.6992     0.64726E+02 
  52305.0269     0.63642E+02 
  52345.3546     0.62580E+02 
  52385.6823     0.61538E+02 
  52426.0100     0.60516E+02 
  52466.3377     0.59513E+02 
  52506.6654     0.58529E+02 
  52546.9931     0.57564E+02 
  52587.3208     0.56618E+02 
  52627.6485     0.55689E+02 
  52667.9762     0.54777E+02 
  52708.3039     0.53882E+02 
  52748.6316     0.53004E+02 
  52788.9593     0.52142E+02 
  52829.2870     0.51296E+02 
  52869.6147     0.50466E+02 
  52909.9424     0.49650E+02 
  52950.2701     0.48850E+02 
  52990.5978     0.48064E+02 
  53030.9255     0.47292E+02 
  53071.2532     0.46534E+02 
  53111.5809     0.45790E+02 
  53151.9086     0.45059E+02 
  53192.2363     0.44341E+02 
  53232.5640     0.43636E+02 
  53272.8917     0.42943E+02 
  53313.2194     0.42262E+02 
  53353.5471     0.41594E+02 
  53393.8748     0.40937E+02 
  53434.2025     0.40291E+02 
  53474.5302     0.39657E+02 
  53514.8579     0.39033E+02 
  53555.1856     0.38420E+02 
  53595.5133     0.37818E+02 
  53635.8410     0.37225E+02 
  53676.1687     0.36643E+02 
  53716.4964     0.36071E+02 
  53756.8241     0.35508E+02 
  53797.1518     0.34955E+02 
  53837.4795     0.34410E+02 
  53877.8072     0.33875E+02 
  53918.1349     0.33349E+02 
  53958.4626     0.32831E+02 
  53998.7903     0.32321E+02 
  54039.1180     0.31820E+02 
  54079.4457     0.31327E+02 
  54119.7734     0.30842E+02 
  54160.1011     0.30365E+02 
  54200.4288     0.29895E+02 
  54240.7565     0.29433E+02 
  54281.0842     0.28978E+02 
  54321.4119     0.28530E+02 
  54361.7396     0.28090E+02 
  54402.0673     0.27656E+02 
  54442.3950     0.27229E+02 
  54482.7227     0.26809E+02 
  54523.0504     0.26395E+02 
  54563.3781     0.25987E+02 
  54603.7058     0.25586E+02 
  54644.0335     0.25191E+02 
  54684.3612     0.24802E+02 
  54724.6889     0.24419E+02 
  54765.0166     0.24041E+02 
  54805.3443     0.23669E+02 
  54845.6720     0.23303E+02 
  54885.9997     0.22942E+02 
  54926.3274     0.22587E+02 
  54966.6551     0.22237E+02 
  55006.9828     0.21892E+02 
  55047.3105     0.21552E+02 
  55087.6382     0.21217E+02 
  55127.9659     0.20887E+02 
  55168.2936     0.20562E+02 
  55208.6213     0.20241E+02 
  55248.9490     0.19925E+02 
  55289.2767     0.19614E+02 
  55329.6044     0.19307E+02 
  55369.9321     0.19004E+02 
  55410.2598     0.18706E+02 
  55450.5875     0.18412E+02 
  55490.9152     0.18122E+02 
  55531.2429     0.17836E+02 
  55571.5706     0.17554E+02 
  55611.8983     0.17276E+02 
  55652.2260     0.17002E+02 
  55692.5537     0.16732E+02 
  55732.8814     0.16466E+02 
  55773.2091     0.16203E+02 
  55813.5368     0.15944E+02 
  55853.8645     0.15688E+02 
  55894.1922     0.15436E+02 
  55934.5199     0.15187E+02 
  55974.8476     0.14942E+02 
  56015.1753     0.14700E+02 
  56055.5030     0.14461E+02 
  56095.8307     0.14225E+02 
  56136.1584     0.13993E+02 
  56176.4861     0.13764E+02 
  56216.8138     0.13537E+02 
  56257.1415     0.13314E+02 
  56297.4692     0.13094E+02 
  56337.7969     0.12876E+02 
  56378.1246     0.12662E+02 
  56418.4523     0.12450E+02 
  56458.7800     0.12241E+02 
  56499.1077     0.12035E+02 
  56539.4354     0.11832E+02 
  56579.7631     0.11631E+02 
  56620.0908     0.11433E+02 
  56660.4185     0.11237E+02 
  56700.7462     0.11044E+02 
  56741.0739     0.10854E+02 
  56781.4016     0.10666E+02 
  56821.7293     0.10480E+02 
  56862.0570     0.10297E+02 
  56902.3847     0.10116E+02 
  56942.7124     0.99377E+01 
  56983.0401     0.97615E+01 
  57023.3678     0.95875E+01 
  57063.6955     0.94158E+01 
  57104.0232     0.92463E+01 
  57144.3509     0.90790E+01 
  57184.6786     0.89138E+01 
  57225.0063     0.87507E+01 
  57265.3340     0.85897E+01 
  57305.6617     0.84308E+01 
  57345.9894     0.82739E+01 
  57386.3171     0.81190E+01 
  57426.6448     0.79661E+01 
  57466.9725     0.78151E+01 
  57507.3002     0.76661E+01 
  57547.6279     0.75190E+01 
  57587.9556     0.73738E+01 
  57628.2833     0.72304E+01 
  57668.6110     0.70889E+01 
  57708.9387     0.69491E+01 
  57749.2664     0.68112E+01 
  57789.5941     0.66751E+01 
  57829.9218     0.65407E+01 
  57870.2495     0.64080E+01 
  57910.5772     0.62771E+01 
  57950.9049     0.61479E+01 
  57991.2326     0.60203E+01 
  58031.5603     0.58944E+01 
  58071.8880     0.57701E+01 
  58112.2157     0.56475E+01 
  58152.5434     0.55265E+01 
  58192.8711     0.54070E+01 
  58233.1988     0.52891E+01 
  58273.5265     0.51728E+01 
  58313.8542     0.50581E+01 
  58354.1819     0.49448E+01 
  58394.5096     0.48331E+01 
  58434.8373     0.47229E+01 
  58475.1650     0.46141E+01 
  58515.4927     0.45069E+01 
  58555.8204     0.44010E+01 
  58596.1481     0.42967E+01 
  58636.4758     0.41937E+01 
  58676.8035     0.40922E+01 
  58717.1312     0.39921E+01 
  58757.4589     0.38934E+01 
  58797.7866     0.37961E+01 
  58838.1143     0.37002E+01 
  58878.4420     0.36056E+01 
  58918.7697     0.35124E+01 
  58959.0974     0.34205E+01 
  58999.4251     0.33300E+01 
  59039.7528     0.32408E+01 
  59080.0805     0.31529E+01 
  59120.4082     0.30663E+01 
  59160.7359     0.29810E+01 
  59201.0636     0.28971E+01 
  59241.3913     0.28144E+01 
  59281.7190     0.27330E+01 
  59322.0467     0.26528E+01 
  59362.3744     0.25739E+01 
  59402.7021     0.24963E+01 
  59443.0298     0.24199E+01 
  59483.3575     0.23448E+01 
  59523.6852     0.22709E+01 
  59564.0129     0.21983E+01 
  59604.3406     0.21269E+01 
  59644.6683     0.20567E+01 
  59684.9960     0.19877E+01 
  59725.3237     0.19199E+01 
  59765.6514     0.18534E+01 
  59805.9791     0.17880E+01 
  59846.3068     0.17239E+01 
  59886.6345     0.16610E+01 
  59926.9622     0.15992E+01 
  59967.2899     0.15387E+01 
  60007.6176     0.14793E+01 
  60047.9453     0.14212E+01 
  60088.2730     0.13642E+01 
  60128.6007     0.13084E+01 
  60168.9284     0.12538E+01 
  60209.2561     0.12004E+01 
  60249.5838     0.11481E+01 
  60289.9115     0.10971E+01 
  60330.2392     0.10472E+01 
  60370.5669     0.99848E+00 
  60410.8946     0.95095E+00 
  60451.2223     0.90461E+00 
  60491.5500     0.85945E+00 
  60531.8777     0.81546E+00 
  60572.2054     0.77266E+00 
  60612.5331     0.73105E+00 
  60652.8608     0.69061E+00 
  60693.1885     0.65136E+00 
  60733.5162     0.61331E+00 
  60773.8439     0.57644E+00 
  60814.1716     0.54076E+00 
  60854.4993     0.50628E+00 
  60894.8270     0.47299E+00 
  60935.1547     0.44091E+00 
  60975.4824     0.41004E+00 
  61015.8101     0.38037E+00 
  61056.1378     0.35191E+00 
  61096.4655     0.32467E+00 
  61136.7932     0.29865E+00 
  61177.1209     0.27386E+00 
  61217.4486     0.25030E+00 
  61257.7763     0.22798E+00 
  61298.1040     0.20689E+00 
  61338.4317     0.18706E+00 
  61378.7594     0.16848E+00 
  61419.0871     0.15116E+00 
  61459.4148     0.13510E+00 
  61499.7425     0.12032E+00 
  61540.0702     0.10682E+00 
  61580.3979     0.94613E-01 
  61620.7256     0.83699E-01 
  61661.0533     0.74089E-01 
  61701.3810     0.65792E-01 
  61741.7087     0.58816E-01 
  61782.0364     0.53171E-01 
  61822.3641     0.48865E-01 
  61862.6918     0.45909E-01 
  61903.0195     0.44311E-01 
  61943.3472     0.44083E-01 
  61983.6749     0.45235E-01 
  62024.0026     0.47777E-01 
  62064.3303     0.51720E-01 
  62104.6580     0.57077E-01 
  62144.9857     0.63858E-01 
  62185.3134     0.72077E-01 
  62225.6411     0.81745E-01 
  62265.9688     0.92875E-01 
  62306.2965     0.10548E+00 
  62346.6242     0.11957E+00 
  62386.9519     0.13517E+00 
  62427.2796     0.15229E+00 
  62467.6073     0.17093E+00 
  62507.9350     0.19112E+00 
  62548.2627     0.21287E+00 
  62588.5904     0.23620E+00 
  62628.9181     0.26113E+00 
  62669.2458     0.28766E+00 
  62709.5735     0.31582E+00 
  62749.9012     0.34562E+00 
  62790.2289     0.37709E+00 
  62830.5566     0.41023E+00 
  62870.8843     0.44507E+00 
  62911.2120     0.48163E+00 
  62951.5397     0.51992E+00 
  62991.8674     0.55997E+00 
  63032.1951     0.60180E+00 
  63072.5228     0.64542E+00 
  63112.8505     0.69086E+00 
  63153.1782     0.73814E+00 
  63193.5059     0.78728E+00 
  63233.8336     0.83830E+00 
  63274.1613     0.89123E+00 
  63314.4890     0.94609E+00 
  63354.8167     0.10029E+01 
  63395.1444     0.10617E+01 
  63435.4721     0.11225E+01 
  63475.7998     0.11853E+01 
  63516.1275     0.12502E+01 
  63556.4552     0.13172E+01 
  63596.7829     0.13862E+01 
  63637.1106     0.14574E+01 
  63677.4383     0.15308E+01 
  63717.7660     0.16064E+01 
  63758.0937     0.16842E+01 
  63798.4214     0.17642E+01 
  63838.7491     0.18465E+01 
  63879.0768     0.19312E+01 
  63919.4045     0.20182E+01 
  63959.7322     0.21075E+01 
  64000.0599     0.21993E+01 
  64040.3876     0.22936E+01 
  64080.7153     0.23903E+01 
  64121.0430     0.24895E+01 
  64161.3707     0.25913E+01 
  64201.6984     0.26957E+01 
  64242.0261     0.28027E+01 
  64282.3538     0.29123E+01 
  64322.6815     0.30247E+01 
  64363.0092     0.31398E+01 
  64403.3369     0.32577E+01 
  64443.6646     0.33784E+01 
  64483.9923     0.35020E+01 
  64524.3200     0.36286E+01 
  64564.6477     0.37580E+01 
  64604.9754     0.38905E+01 
  64645.3031     0.40260E+01 
  64685.6308     0.41646E+01 
  64725.9585     0.43064E+01 
  64766.2862     0.44513E+01 
  64806.6139     0.45995E+01 
  64846.9416     0.47509E+01 
  64887.2693     0.49058E+01 
  64927.5970     0.50640E+01 
  64967.9247     0.52256E+01 
  65008.2524     0.53908E+01 
  65048.5801     0.55595E+01 
  65088.9078     0.57318E+01 
  65129.2355     0.59078E+01 
  65169.5632     0.60875E+01 
  65209.8909     0.62710E+01 
  65250.2186     0.64584E+01 
  65290.5463     0.66496E+01 
  65330.8740     0.68449E+01 
  65371.2017     0.70442E+01 
  65411.5294     0.72476E+01 
  65451.8571     0.74552E+01 
  65492.1848     0.76670E+01 
  65532.5125     0.78832E+01 
  65572.8402     0.81037E+01 
  65613.1679     0.83288E+01 
  65653.4956     0.85583E+01 
  65693.8233     0.87925E+01 
  65734.1510     0.90313E+01 
  65774.4787     0.92749E+01 
  65814.8064     0.95234E+01 
  65855.1341     0.97768E+01 
  65895.4618     0.10035E+02 
  65935.7895     0.10299E+02 
  65976.1172     0.10568E+02 
  66016.4449     0.10842E+02 
  66056.7726     0.11121E+02 
  66097.1003     0.11406E+02 
  66137.4280     0.11696E+02 
  66177.7557     0.11992E+02 
  66218.0834     0.12294E+02 
  66258.4111     0.12602E+02 
  66298.7388     0.12916E+02 
  66339.0665     0.13235E+02 
  66379.3942     0.13561E+02 
  66419.7219     0.13893E+02 
  66460.0496     0.14232E+02 
  66500.3773     0.14577E+02 
  66540.7050     0.14929E+02 
  66581.0327     0.15287E+02 
  66621.3604     0.15653E+02 
  66661.6881     0.16025E+02 
  66702.0158     0.16405E+02 
  66742.3435     0.16791E+02 
  66782.6712     0.17185E+02 
  66822.9989     0.17587E+02 
  66863.3266     0.17996E+02 
  66903.6543     0.18413E+02 
  66943.9820     0.18839E+02 
  66984.3097     0.19272E+02 
  67024.6374     0.19713E+02 
  67064.9651     0.20163E+02 
  67105.2928     0.20621E+02 
  67145.6205     0.21088E+02 
  67185.9482     0.21564E+02 
  67226.2759     0.22049E+02 
  67266.6036     0.22543E+02 
  67306.9313     0.23046E+02 
  67347.2590     0.23559E+02 
  67387.5867     0.24082E+02 
  67427.9144     0.24615E+02 
  67468.2421     0.25158E+02 
  67508.5698     0.25711E+02 
  67548.8975     0.26274E+02 
  67589.2252     0.26849E+02 
  67629.5529     0.27434E+02 
  67669.8806     0.28030E+02 
  67710.2083     0.28638E+02 
  67750.5360     0.29257E+02 
  67790.8637     0.29888E+02 
  67831.1914     0.30531E+02 
  67871.5191     0.31187E+02 
  67911.8468     0.31854E+02 
  67952.1745     0.32535E+02 
  67992.5022     0.33228E+02 
  68032.8299     0.33935E+02 
  68073.1576     0.34655E+02 
  68113.4853     0.35389E+02 
  68153.8130     0.36137E+02 
  68194.1407     0.36900E+02 
  68234.4684     0.37677E+02 
  68274.7961     0.38469E+02 
  68315.1238     0.39276E+02 
  68355.4515     0.40098E+02 
  68395.7792     0.40937E+02 
  68436.1069     0.41792E+02 
  68476.4346     0.42663E+02 
  68516.7623     0.43551E+02 
  68557.0900     0.44456E+02 
  68597.4177     0.45378E+02 
  68637.7454     0.46319E+02 
  68678.0731     0.47278E+02 
  68718.4008     0.48255E+02 
  68758.7285     0.49251E+02 
  68799.0562     0.50267E+02 
  68839.3839     0.51303E+02 
  68879.7116     0.52359E+02 
  68920.0393     0.53435E+02 
  68960.3670     0.54533E+02 
  69000.6947     0.55652E+02 
  69041.0224     0.56793E+02 
  69081.3501     0.57957E+02 
  69121.6778     0.59143E+02 
  69162.0055     0.60353E+02 
  69202.3332     0.61587E+02 
  69242.6609     0.62846E+02 
  69282.9886     0.64129E+02 
  69323.3163     0.65438E+02 
  69363.6440     0.66773E+02 
  69403.9717     0.68134E+02 
  69444.2994     0.69523E+02 
  69484.6271     0.70940E+02 
  69524.9548     0.72385E+02 
  69565.2825     0.73859E+02 
  69605.6102     0.75363E+02 
  69645.9379     0.76897E+02 
  69686.2656     0.78463E+02 
  69726.5933     0.80060E+02 
  69766.9210     0.81689E+02 
  69807.2487     0.83351E+02 
  69847.5764     0.85048E+02 
  69887.9041     0.86779E+02 
  69928.2318     0.88546E+02 
  69968.5595     0.90349E+02 
  70008.8872     0.92189E+02 
  70049.2149     0.94067E+02 
  70089.5426     0.95983E+02 
  70129.8703     0.97940E+02 
  70170.1980     0.99937E+02 
  70210.5257     0.10198E+03 
  70250.8534     0.10406E+03 
  70291.1811     0.10618E+03 
  70331.5088     0.10835E+03 
  70371.8365     0.11057E+03 
  70412.1642     0.11283E+03 
  70452.4919     0.11514E+03 
  70492.8196     0.11749E+03 
  70533.1473     0.11990E+03 
  70573.4750     0.12236E+03 
  70613.8027     0.12487E+03 
  70654.1304     0.12744E+03 
  70694.4581     0.13006E+03 
  70734.7858     0.13274E+03 
  70775.1135     0.13547E+03 
  70815.4412     0.13827E+03 
  70855.7689     0.14112E+03 
  70896.0966     0.14404E+03 
  70936.4243     0.14702E+03 
  70976.7520     0.15006E+03 
  71017.0797     0.15317E+03 
  71057.4074     0.15635E+03 
  71097.7351     0.15961E+03 
  71138.0628     0.16293E+03 
  71178.3905     0.16632E+03 
  71218.7182     0.16980E+03 
  71259.0459     0.17335E+03 
  71299.3736     0.17697E+03 
  71339.7013     0.18069E+03 
  71380.0290     0.18448E+03 
  71420.3567     0.18836E+03 
  71460.6844     0.19233E+03 
  71501.0121     0.19639E+03 
  71541.3398     0.20054E+03 
  71581.6675     0.20478E+03 
  71621.9952     0.20912E+03 
  71662.3229     0.21357E+03 
  71702.6506     0.21811E+03 
  71742.9783     0.22277E+03 
  71783.3060     0.22753E+03 
  71823.6337     0.23240E+03 
  71863.9614     0.23738E+03 
  71904.2891     0.24248E+03 
  71944.6168     0.24771E+03 
  71984.9445     0.25305E+03 
  72025.2722     0.25853E+03 
  72065.5999     0.26413E+03 
  72105.9276     0.26987E+03 
  72146.2553     0.27574E+03 
  72186.5830     0.28176E+03 
  72226.9107     0.28793E+03 
  72267.2384     0.29424E+03 
  72307.5661     0.30071E+03 
  72347.8938     0.30733E+03 
  72388.2215     0.31412E+03 
  72428.5492     0.32108E+03 
  72468.8769     0.32820E+03 
  72509.2046     0.33551E+03 
  72549.5323     0.34300E+03 
  72589.8600     0.35067E+03 
