  32262.1600     0.59935E-01 
  32302.4877     0.57828E-01 
  32342.8154     0.55755E-01 
  32383.1431     0.53715E-01 
  32423.4708     0.51708E-01 
  32463.7985     0.49736E-01 
  32504.1262     0.47798E-01 
  32544.4539     0.45895E-01 
  32584.7816     0.44026E-01 
  32625.1093     0.42193E-01 
  32665.4370     0.40394E-01 
  32705.7647     0.38631E-01 
  32746.0924     0.36904E-01 
  32786.4201     0.35214E-01 
  32826.7478     0.33559E-01 
  32867.0755     0.31941E-01 
  32907.4032     0.30361E-01 
  32947.7309     0.28818E-01 
  32988.0586     0.27312E-01 
  33028.3863     0.25845E-01 
  33068.7140     0.24417E-01 
  33109.0417     0.23027E-01 
  33149.3694     0.21676E-01 
  33189.6971     0.20366E-01 
  33230.0248     0.19095E-01 
  33270.3525     0.17865E-01 
  33310.6802     0.16676E-01 
  33351.0079     0.15528E-01 
  33391.3356     0.14423E-01 
  33431.6633     0.13359E-01 
  33471.9910     0.12339E-01 
  33512.3187     0.11362E-01 
  33552.6464     0.10429E-01 
  33592.9741     0.95402E-02 
  33633.3018     0.86965E-02 
  33673.6295     0.78984E-02 
  33713.9572     0.71464E-02 
  33754.2849     0.64410E-02 
  33794.6126     0.57830E-02 
  33834.9403     0.51728E-02 
  33875.2680     0.46112E-02 
  33915.5957     0.40988E-02 
  33955.9234     0.36361E-02 
  33996.2511     0.32240E-02 
  34036.5788     0.28631E-02 
  34076.9065     0.25541E-02 
  34117.2342     0.22976E-02 
  34157.5619     0.20945E-02 
  34197.8896     0.19456E-02 
  34238.2173     0.18514E-02 
  34278.5450     0.18129E-02 
  34318.8727     0.18309E-02 
  34359.2004     0.19062E-02 
  34399.5281     0.20395E-02 
  34439.8558     0.22318E-02 
  34480.1835     0.24840E-02 
  34520.5112     0.27969E-02 
  34560.8389     0.31715E-02 
  34601.1666     0.36086E-02 
  34641.4943     0.41092E-02 
  34681.8220     0.46744E-02 
  34722.1497     0.53051E-02 
  34762.4774     0.60023E-02 
  34802.8051     0.67670E-02 
  34843.1328     0.76003E-02 
  34883.4605     0.85033E-02 
  34923.7882     0.94771E-02 
  34964.1159     0.10523E-01 
  35004.4436     0.11642E-01 
  35044.7713     0.12835E-01 
  35085.0990     0.14103E-01 
  35125.4267     0.15448E-01 
  35165.7544     0.16871E-01 
  35206.0821     0.18373E-01 
  35246.4098     0.19956E-01 
  35286.7375     0.21620E-01 
  35327.0652     0.23368E-01 
  35367.3929     0.25200E-01 
  35407.7206     0.27118E-01 
  35448.0483     0.29123E-01 
  35488.3760     0.31217E-01 
  35528.7037     0.33402E-01 
  35569.0314     0.35678E-01 
  35609.3591     0.38048E-01 
  35649.6868     0.40512E-01 
  35690.0145     0.43074E-01 
  35730.3422     0.45733E-01 
  35770.6699     0.48493E-01 
  35810.9976     0.51354E-01 
  35851.3253     0.54318E-01 
  35891.6530     0.57388E-01 
  35931.9807     0.60565E-01 
  35972.3084     0.63851E-01 
  36012.6361     0.67247E-01 
  36052.9638     0.70756E-01 
  36093.2915     0.74380E-01 
  36133.6192     0.78121E-01 
  36173.9469     0.81981E-01 
  36214.2746     0.85961E-01 
  36254.6023     0.90065E-01 
  36294.9300     0.94293E-01 
  36335.2577     0.98649E-01 
  36375.5854     0.10314E+00 
  36415.9131     0.10775E+00 
  36456.2408     0.11251E+00 
  36496.5685     0.11740E+00 
  36536.8962     0.12242E+00 
  36577.2239     0.12759E+00 
  36617.5516     0.13291E+00 
  36657.8793     0.13837E+00 
  36698.2070     0.14398E+00 
  36738.5347     0.14975E+00 
  36778.8624     0.15567E+00 
  36819.1901     0.16174E+00 
  36859.5178     0.16798E+00 
  36899.8455     0.17438E+00 
  36940.1732     0.18095E+00 
  36980.5009     0.18769E+00 
  37020.8286     0.19460E+00 
  37061.1563     0.20169E+00 
  37101.4840     0.20896E+00 
  37141.8117     0.21641E+00 
  37182.1394     0.22405E+00 
  37222.4671     0.23188E+00 
  37262.7948     0.23990E+00 
  37303.1225     0.24812E+00 
  37343.4502     0.25654E+00 
  37383.7779     0.26516E+00 
  37424.1056     0.27399E+00 
  37464.4333     0.28304E+00 
  37504.7610     0.29230E+00 
  37545.0887     0.30178E+00 
  37585.4164     0.31148E+00 
  37625.7441     0.32142E+00 
  37666.0718     0.33158E+00 
  37706.3995     0.34199E+00 
  37746.7272     0.35264E+00 
  37787.0549     0.36353E+00 
  37827.3826     0.37468E+00 
  37867.7103     0.38608E+00 
  37908.0380     0.39775E+00 
  37948.3657     0.40968E+00 
  37988.6934     0.42188E+00 
  38029.0211     0.43436E+00 
  38069.3488     0.44712E+00 
  38109.6765     0.46017E+00 
  38150.0042     0.47351E+00 
  38190.3319     0.48715E+00 
  38230.6596     0.50110E+00 
  38270.9873     0.51536E+00 
  38311.3150     0.52993E+00 
  38351.6427     0.54483E+00 
  38391.9704     0.56006E+00 
  38432.2981     0.57562E+00 
  38472.6258     0.59153E+00 
  38512.9535     0.60779E+00 
  38553.2812     0.62440E+00 
  38593.6089     0.64137E+00 
  38633.9366     0.65872E+00 
  38674.2643     0.67645E+00 
  38714.5920     0.69456E+00 
  38754.9197     0.71306E+00 
  38795.2474     0.73197E+00 
  38835.5751     0.75129E+00 
  38875.9028     0.77102E+00 
  38916.2305     0.79118E+00 
  38956.5582     0.81177E+00 
  38996.8859     0.83281E+00 
  39037.2136     0.85430E+00 
  39077.5413     0.87626E+00 
  39117.8690     0.89868E+00 
  39158.1967     0.92158E+00 
  39198.5244     0.94498E+00 
  39238.8521     0.96888E+00 
  39279.1798     0.99328E+00 
  39319.5075     0.10182E+01 
  39359.8352     0.10437E+01 
  39400.1629     0.10697E+01 
  39440.4906     0.10962E+01 
  39480.8183     0.11234E+01 
  39521.1460     0.11511E+01 
  39561.4737     0.11794E+01 
  39601.8014     0.12083E+01 
  39642.1291     0.12378E+01 
  39682.4568     0.12679E+01 
  39722.7845     0.12987E+01 
  39763.1122     0.13301E+01 
  39803.4399     0.13622E+01 
  39843.7676     0.13950E+01 
  39884.0953     0.14285E+01 
  39924.4230     0.14627E+01 
  39964.7507     0.14976E+01 
  40005.0784     0.15332E+01 
  40045.4061     0.15697E+01 
  40085.7338     0.16068E+01 
  40126.0615     0.16448E+01 
  40166.3892     0.16836E+01 
  40206.7169     0.17232E+01 
  40247.0446     0.17637E+01 
  40287.3723     0.18050E+01 
  40327.7000     0.18472E+01 
  40368.0277     0.18903E+01 
  40408.3554     0.19343E+01 
  40448.6831     0.19793E+01 
  40489.0108     0.20252E+01 
  40529.3385     0.20721E+01 
  40569.6662     0.21200E+01 
  40609.9939     0.21689E+01 
  40650.3216     0.22189E+01 
  40690.6493     0.22699E+01 
  40730.9770     0.23221E+01 
  40771.3047     0.23753E+01 
  40811.6324     0.24297E+01 
  40851.9601     0.24853E+01 
  40892.2878     0.25420E+01 
  40932.6155     0.26000E+01 
  40972.9432     0.26592E+01 
  41013.2709     0.27197E+01 
  41053.5986     0.27816E+01 
  41093.9263     0.28447E+01 
  41134.2540     0.29092E+01 
  41174.5817     0.29751E+01 
  41214.9094     0.30425E+01 
  41255.2371     0.31113E+01 
  41295.5648     0.31816E+01 
  41335.8925     0.32534E+01 
  41376.2202     0.33268E+01 
  41416.5479     0.34018E+01 
  41456.8756     0.34785E+01 
  41497.2033     0.35568E+01 
  41537.5310     0.36368E+01 
  41577.8587     0.37186E+01 
  41618.1864     0.38022E+01 
  41658.5141     0.38876E+01 
  41698.8418     0.39750E+01 
  41739.1695     0.40642E+01 
  41779.4972     0.41554E+01 
  41819.8249     0.42487E+01 
  41860.1526     0.43440E+01 
  41900.4803     0.44414E+01 
  41940.8080     0.45411E+01 
  41981.1357     0.46429E+01 
  42021.4634     0.47470E+01 
  42061.7911     0.48535E+01 
  42102.1188     0.49623E+01 
  42142.4465     0.50736E+01 
  42182.7742     0.51874E+01 
  42223.1019     0.53038E+01 
  42263.4296     0.54228E+01 
  42303.7573     0.55445E+01 
  42344.0850     0.56689E+01 
  42384.4127     0.57962E+01 
  42424.7404     0.59264E+01 
  42465.0681     0.60596E+01 
  42505.3958     0.61959E+01 
  42545.7235     0.63352E+01 
  42586.0512     0.64778E+01 
  42626.3789     0.66237E+01 
  42666.7066     0.67729E+01 
  42707.0343     0.69256E+01 
  42747.3620     0.70819E+01 
  42787.6897     0.72418E+01 
  42828.0174     0.74054E+01 
  42868.3451     0.75729E+01 
  42908.6728     0.77443E+01 
  42949.0005     0.79197E+01 
  42989.3282     0.80993E+01 
  43029.6559     0.82831E+01 
  43069.9836     0.84713E+01 
  43110.3113     0.86640E+01 
  43150.6390     0.88612E+01 
  43190.9667     0.90632E+01 
  43231.2944     0.92700E+01 
  43271.6221     0.94818E+01 
  43311.9498     0.96987E+01 
  43352.2775     0.99208E+01 
  43392.6052     0.10148E+02 
  43432.9329     0.10381E+02 
  43473.2606     0.10620E+02 
  43513.5883     0.10865E+02 
  43553.9160     0.11115E+02 
  43594.2437     0.11372E+02 
  43634.5714     0.11635E+02 
  43674.8991     0.11905E+02 
  43715.2268     0.12181E+02 
  43755.5545     0.12464E+02 
  43795.8822     0.12755E+02 
  43836.2099     0.13052E+02 
  43876.5376     0.13357E+02 
  43916.8653     0.13670E+02 
  43957.1930     0.13991E+02 
  43997.5207     0.14319E+02 
  44037.8484     0.14657E+02 
  44078.1761     0.15002E+02 
  44118.5038     0.15357E+02 
  44158.8315     0.15721E+02 
  44199.1592     0.16094E+02 
  44239.4869     0.16477E+02 
  44279.8146     0.16870E+02 
  44320.1423     0.17274E+02 
  44360.4700     0.17687E+02 
  44400.7977     0.18112E+02 
  44441.1254     0.18548E+02 
  44481.4531     0.18996E+02 
  44521.7808     0.19455E+02 
  44562.1085     0.19927E+02 
  44602.4362     0.20411E+02 
  44642.7639     0.20909E+02 
  44683.0916     0.21420E+02 
  44723.4193     0.21945E+02 
  44763.7470     0.22484E+02 
  44804.0747     0.23038E+02 
  44844.4024     0.23607E+02 
  44884.7301     0.24192E+02 
  44925.0578     0.24794E+02 
  44965.3855     0.25412E+02 
  45005.7132     0.26047E+02 
  45046.0409     0.26700E+02 
  45086.3686     0.27372E+02 
  45126.6963     0.28062E+02 
  45167.0240     0.28773E+02 
  45207.3517     0.29503E+02 
  45247.6794     0.30255E+02 
  45288.0071     0.31029E+02 
  45328.3348     0.31825E+02 
  45368.6625     0.32644E+02 
  45408.9902     0.33487E+02 
  45449.3179     0.34355E+02 
  45489.6456     0.35249E+02 
  45529.9733     0.36169E+02 
  45570.3010     0.37117E+02 
  45610.6287     0.38094E+02 
  45650.9564     0.39100E+02 
  45691.2841     0.40136E+02 
  45731.6118     0.41204E+02 
  45771.9395     0.42305E+02 
  45812.2672     0.43440E+02 
  45852.5949     0.44610E+02 
  45892.9226     0.45817E+02 
  45933.2503     0.47062E+02 
  45973.5780     0.48346E+02 
  46013.9057     0.49670E+02 
  46054.2334     0.51037E+02 
  46094.5611     0.52448E+02 
  46134.8888     0.53904E+02 
  46175.2165     0.55408E+02 
  46215.5442     0.56960E+02 
  46255.8719     0.58564E+02 
  46296.1996     0.60221E+02 
  46336.5273     0.61933E+02 
  46376.8550     0.63702E+02 
  46417.1827     0.65531E+02 
  46457.5104     0.67423E+02 
  46497.8381     0.69378E+02 
  46538.1658     0.71401E+02 
  46578.4935     0.73494E+02 
  46618.8212     0.75660E+02 
  46659.1489     0.77902E+02 
  46699.4766     0.80223E+02 
  46739.8043     0.82626E+02 
  46780.1320     0.85116E+02 
  46820.4597     0.87695E+02 
  46860.7874     0.90369E+02 
  46901.1151     0.93140E+02 
  46941.4428     0.96013E+02 
  46981.7705     0.98993E+02 
  47022.0982     0.10209E+03 
  47062.4259     0.10529E+03 
  47102.7536     0.10862E+03 
  47143.0813     0.11208E+03 
  47183.4090     0.11567E+03 
  47223.7367     0.11941E+03 
  47264.0644     0.12329E+03 
  47304.3921     0.12732E+03 
  47344.7198     0.13151E+03 
  47385.0475     0.13588E+03 
  47425.3752     0.14042E+03 
  47465.7029     0.14514E+03 
  47506.0306     0.15007E+03 
  47546.3583     0.15519E+03 
  47586.6860     0.16054E+03 
  47627.0137     0.16611E+03 
  47667.3414     0.17193E+03 
  47707.6691     0.17799E+03 
  47747.9968     0.18432E+03 
  47788.3245     0.19094E+03 
  47828.6522     0.19785E+03 
  47868.9799     0.20507E+03 
  47909.3076     0.21262E+03 
  47949.6353     0.22052E+03 
  47989.9630     0.22880E+03 
  48030.2907     0.23746E+03 
  48070.6184     0.24654E+03 
  48110.9461     0.25606E+03 
  48151.2738     0.26604E+03 
  48191.6015     0.27652E+03 
  48231.9292     0.28753E+03 
  48272.2569     0.29909E+03 
  48312.5846     0.31126E+03 
  48352.9123     0.32405E+03 
  48393.2400     0.33753E+03 
  48433.5677     0.35173E+03 
  48473.8954     0.36670E+03 
  48514.2231     0.38249E+03 
  48554.5508     0.39917E+03 
  48594.8785     0.41680E+03 
  48635.2062     0.43545E+03 
  48675.5339     0.45519E+03 
  48715.8616     0.47610E+03 
  48756.1893     0.49829E+03 
  48796.5170     0.52183E+03 
  48836.8447     0.54686E+03 
  48877.1724     0.57347E+03 
  48917.5001     0.60182E+03 
  48957.8278     0.63204E+03 
  48998.1555     0.66429E+03 
  49038.4832     0.69876E+03 
  49078.8109     0.73564E+03 
  49119.1386     0.77517E+03 
  49159.4663     0.81757E+03 
  49199.7940     0.86314E+03 
  49240.1217     0.91218E+03 
  49280.4494     0.96505E+03 
  49320.7771     0.10221E+04 
  49361.1048     0.10839E+04 
  49401.4325     0.11508E+04 
  49441.7602     0.12235E+04 
  49482.0879     0.13025E+04 
  49522.4156     0.13887E+04 
  49562.7433     0.14829E+04 
  49603.0710     0.15861E+04 
  49643.3987     0.16993E+04 
  49683.7264     0.18240E+04 
  49724.0541     0.19615E+04 
  49764.3818     0.21135E+04 
  49804.7095     0.22822E+04 
  49845.0372     0.24696E+04 
  49885.3649     0.26784E+04 
  49925.6926     0.29115E+04 
  49966.0203     0.31720E+04 
  50006.3480     0.34634E+04 
  50046.6757     0.37892E+04 
  50087.0034     0.41526E+04 
  50127.3311     0.45563E+04 
  50167.6588     0.50009E+04 
  50207.9865     0.54838E+04 
  50248.3142     0.59974E+04 
  50288.6419     0.65255E+04 
  50328.9696     0.70415E+04 
  50369.2973     0.75066E+04 
  50409.6250     0.78725E+04 
  50449.9527     0.80897E+04 
  50490.2804     0.81218E+04 
  50530.6081     0.79608E+04 
  50570.9358     0.76343E+04 
  50611.2635     0.72000E+04 
  50651.5912     0.67286E+04 
  50691.9189     0.62839E+04 
  50732.2466     0.59103E+04 
  50772.5743     0.56279E+04 
  50812.9020     0.54362E+04 
  50853.2297     0.53194E+04 
  50893.5574     0.52542E+04 
  50933.8851     0.52169E+04 
  50974.2128     0.51888E+04 
  51014.5405     0.51598E+04 
  51054.8682     0.51275E+04 
  51095.1959     0.50943E+04 
  51135.5236     0.50649E+04 
  51175.8513     0.50441E+04 
  51216.1790     0.50364E+04 
  51256.5067     0.50450E+04 
  51296.8344     0.50717E+04 
  51337.1621     0.51174E+04 
  51377.4898     0.51842E+04 
  51417.8175     0.52757E+04 
  51458.1452     0.53971E+04 
  51498.4729     0.55532E+04 
  51538.8006     0.57464E+04 
  51579.1283     0.59754E+04 
  51619.4560     0.62341E+04 
  51659.7837     0.65116E+04 
  51700.1114     0.67947E+04 
  51740.4391     0.70732E+04 
  51780.7668     0.73474E+04 
  51821.0945     0.76353E+04 
  51861.4222     0.79723E+04 
  51901.7499     0.84037E+04 
  51942.0776     0.89702E+04 
  51982.4053     0.96901E+04 
  52022.7330     0.10547E+05 
  52063.0607     0.11489E+05 
  52103.3884     0.12439E+05 
  52143.7161     0.13311E+05 
  52184.0438     0.14024E+05 
  52224.3715     0.14521E+05 
  52264.6992     0.14773E+05 
  52305.0269     0.14792E+05 
  52345.3546     0.14624E+05 
  52385.6823     0.14340E+05 
  52426.0100     0.14013E+05 
  52466.3377     0.13704E+05 
  52506.6654     0.13449E+05 
  52546.9931     0.13263E+05 
  52587.3208     0.13145E+05 
  52627.6485     0.13080E+05 
  52667.9762     0.13051E+05 
  52708.3039     0.13039E+05 
  52748.6316     0.13033E+05 
  52788.9593     0.13026E+05 
  52829.2870     0.13019E+05 
  52869.6147     0.13012E+05 
  52909.9424     0.13000E+05 
  52950.2701     0.12981E+05 
  52990.5978     0.12947E+05 
  53030.9255     0.12891E+05 
  53071.2532     0.12808E+05 
  53111.5809     0.12692E+05 
  53151.9086     0.12543E+05 
  53192.2363     0.12364E+05 
  53232.5640     0.12153E+05 
  53272.8917     0.11903E+05 
  53313.2194     0.11600E+05 
  53353.5471     0.11229E+05 
  53393.8748     0.10786E+05 
  53434.2025     0.10288E+05 
  53474.5302     0.97742E+04 
  53514.8579     0.92999E+04 
  53555.1856     0.89234E+04 
  53595.5133     0.86913E+04 
  53635.8410     0.86307E+04 
  53676.1687     0.87496E+04 
  53716.4964     0.90379E+04 
  53756.8241     0.94683E+04 
  53797.1518     0.99980E+04 
  53837.4795     0.10576E+05 
  53877.8072     0.11150E+05 
  53918.1349     0.11681E+05 
  53958.4626     0.12140E+05 
  53998.7903     0.12512E+05 
  54039.1180     0.12797E+05 
  54079.4457     0.13005E+05 
  54119.7734     0.13159E+05 
  54160.1011     0.13284E+05 
  54200.4288     0.13403E+05 
  54240.7565     0.13531E+05 
  54281.0842     0.13680E+05 
  54321.4119     0.13852E+05 
  54361.7396     0.14048E+05 
  54402.0673     0.14266E+05 
  54442.3950     0.14499E+05 
  54482.7227     0.14738E+05 
  54523.0504     0.14973E+05 
  54563.3781     0.15194E+05 
  54603.7058     0.15388E+05 
  54644.0335     0.15543E+05 
  54684.3612     0.15649E+05 
  54724.6889     0.15700E+05 
  54765.0166     0.15695E+05 
  54805.3443     0.15628E+05 
  54845.6720     0.15490E+05 
  54885.9997     0.15268E+05 
  54926.3274     0.14949E+05 
  54966.6551     0.14528E+05 
  55006.9828     0.14012E+05 
  55047.3105     0.13420E+05 
  55087.6382     0.12773E+05 
  55127.9659     0.12095E+05 
  55168.2936     0.11407E+05 
  55208.6213     0.10735E+05 
  55248.9490     0.10108E+05 
  55289.2767     0.95541E+04 
  55329.6044     0.90954E+04 
  55369.9321     0.87427E+04 
  55410.2598     0.84957E+04 
  55450.5875     0.83464E+04 
  55490.9152     0.82815E+04 
  55531.2429     0.82840E+04 
  55571.5706     0.83349E+04 
  55611.8983     0.84161E+04 
  55652.2260     0.85135E+04 
  55692.5537     0.86178E+04 
  55732.8814     0.87240E+04 
  55773.2091     0.88296E+04 
  55813.5368     0.89352E+04 
  55853.8645     0.90437E+04 
  55894.1922     0.91597E+04 
  55934.5199     0.92880E+04 
  55974.8476     0.94316E+04 
  56015.1753     0.95918E+04 
  56055.5030     0.97679E+04 
  56095.8307     0.99574E+04 
  56136.1584     0.10155E+05 
  56176.4861     0.10354E+05 
  56216.8138     0.10546E+05 
  56257.1415     0.10726E+05 
  56297.4692     0.10889E+05 
  56337.7969     0.11029E+05 
  56378.1246     0.11139E+05 
  56418.4523     0.11210E+05 
  56458.7800     0.11232E+05 
  56499.1077     0.11199E+05 
  56539.4354     0.11112E+05 
  56579.7631     0.10969E+05 
  56620.0908     0.10774E+05 
  56660.4185     0.10526E+05 
  56700.7462     0.10228E+05 
  56741.0739     0.98853E+04 
  56781.4016     0.95084E+04 
  56821.7293     0.91110E+04 
  56862.0570     0.87063E+04 
  56902.3847     0.83059E+04 
  56942.7124     0.79194E+04 
  56983.0401     0.75555E+04 
  57023.3678     0.72216E+04 
  57063.6955     0.69232E+04 
  57104.0232     0.66626E+04 
  57144.3509     0.64394E+04 
  57184.6786     0.62514E+04 
  57225.0063     0.60953E+04 
  57265.3340     0.59675E+04 
  57305.6617     0.58638E+04 
  57345.9894     0.57799E+04 
  57386.3171     0.57129E+04 
  57426.6448     0.56605E+04 
  57466.9725     0.56214E+04 
  57507.3002     0.55950E+04 
  57547.6279     0.55809E+04 
  57587.9556     0.55788E+04 
  57628.2833     0.55888E+04 
  57668.6110     0.56100E+04 
  57708.9387     0.56411E+04 
  57749.2664     0.56805E+04 
  57789.5941     0.57263E+04 
  57829.9218     0.57771E+04 
  57870.2495     0.58306E+04 
  57910.5772     0.58837E+04 
  57950.9049     0.59322E+04 
  57991.2326     0.59724E+04 
  58031.5603     0.60012E+04 
  58071.8880     0.60167E+04 
  58112.2157     0.60173E+04 
  58152.5434     0.60010E+04 
  58192.8711     0.59652E+04 
  58233.1988     0.59085E+04 
  58273.5265     0.58305E+04 
  58313.8542     0.57325E+04 
  58354.1819     0.56167E+04 
  58394.5096     0.54852E+04 
  58434.8373     0.53403E+04 
  58475.1650     0.51846E+04 
  58515.4927     0.50214E+04 
  58555.8204     0.48544E+04 
  58596.1481     0.46872E+04 
  58636.4758     0.45231E+04 
  58676.8035     0.43643E+04 
  58717.1312     0.42128E+04 
  58757.4589     0.40702E+04 
  58797.7866     0.39374E+04 
  58838.1143     0.38149E+04 
  58878.4420     0.37028E+04 
  58918.7697     0.36005E+04 
  58959.0974     0.35078E+04 
  58999.4251     0.34240E+04 
  59039.7528     0.33486E+04 
  59080.0805     0.32810E+04 
  59120.4082     0.32207E+04 
  59160.7359     0.31673E+04 
  59201.0636     0.31204E+04 
  59241.3913     0.30796E+04 
  59281.7190     0.30444E+04 
  59322.0467     0.30145E+04 
  59362.3744     0.29895E+04 
  59402.7021     0.29689E+04 
  59443.0298     0.29520E+04 
  59483.3575     0.29376E+04 
  59523.6852     0.29248E+04 
  59564.0129     0.29129E+04 
  59604.3406     0.29010E+04 
  59644.6683     0.28883E+04 
  59684.9960     0.28739E+04 
  59725.3237     0.28567E+04 
  59765.6514     0.28357E+04 
  59805.9791     0.28106E+04 
  59846.3068     0.27810E+04 
  59886.6345     0.27468E+04 
  59926.9622     0.27079E+04 
  59967.2899     0.26642E+04 
  60007.6176     0.26158E+04 
  60047.9453     0.25633E+04 
  60088.2730     0.25074E+04 
  60128.6007     0.24487E+04 
  60168.9284     0.23881E+04 
  60209.2561     0.23261E+04 
  60249.5838     0.22636E+04 
  60289.9115     0.22012E+04 
  60330.2392     0.21397E+04 
  60370.5669     0.20795E+04 
  60410.8946     0.20213E+04 
  60451.2223     0.19652E+04 
  60491.5500     0.19115E+04 
  60531.8777     0.18604E+04 
  60572.2054     0.18120E+04 
  60612.5331     0.17662E+04 
  60652.8608     0.17232E+04 
  60693.1885     0.16827E+04 
  60733.5162     0.16448E+04 
  60773.8439     0.16093E+04 
  60814.1716     0.15762E+04 
  60854.4993     0.15452E+04 
  60894.8270     0.15164E+04 
  60935.1547     0.14896E+04 
  60975.4824     0.14646E+04 
  61015.8101     0.14412E+04 
  61056.1378     0.14193E+04 
  61096.4655     0.13987E+04 
  61136.7932     0.13792E+04 
  61177.1209     0.13605E+04 
  61217.4486     0.13425E+04 
  61257.7763     0.13249E+04 
  61298.1040     0.13074E+04 
  61338.4317     0.12898E+04 
  61378.7594     0.12720E+04 
  61419.0871     0.12539E+04 
  61459.4148     0.12352E+04 
  61499.7425     0.12159E+04 
  61540.0702     0.11959E+04 
  61580.3979     0.11752E+04 
  61620.7256     0.11538E+04 
  61661.0533     0.11317E+04 
  61701.3810     0.11091E+04 
  61741.7087     0.10859E+04 
  61782.0364     0.10624E+04 
  61822.3641     0.10387E+04 
  61862.6918     0.10149E+04 
  61903.0195     0.99116E+03 
  61943.3472     0.96760E+03 
  61983.6749     0.94435E+03 
  62024.0026     0.92151E+03 
  62064.3303     0.89919E+03 
  62104.6580     0.87745E+03 
  62144.9857     0.85635E+03 
  62185.3134     0.83594E+03 
  62225.6411     0.81625E+03 
  62265.9688     0.79729E+03 
  62306.2965     0.77906E+03 
  62346.6242     0.76156E+03 
  62386.9519     0.74477E+03 
  62427.2796     0.72870E+03 
  62467.6073     0.71330E+03 
  62507.9350     0.69856E+03 
  62548.2627     0.68443E+03 
  62588.5904     0.67088E+03 
  62628.9181     0.65789E+03 
  62669.2458     0.64541E+03 
  62709.5735     0.63340E+03 
  62749.9012     0.62181E+03 
  62790.2289     0.61058E+03 
  62830.5566     0.59967E+03 
  62870.8843     0.58903E+03 
  62911.2120     0.57863E+03 
  62951.5397     0.56841E+03 
  62991.8674     0.55834E+03 
  63032.1951     0.54836E+03 
  63072.5228     0.53846E+03 
  63112.8505     0.52861E+03 
  63153.1782     0.51879E+03 
  63193.5059     0.50899E+03 
  63233.8336     0.49921E+03 
  63274.1613     0.48944E+03 
  63314.4890     0.47969E+03 
  63354.8167     0.46997E+03 
  63395.1444     0.46030E+03 
  63435.4721     0.45070E+03 
  63475.7998     0.44118E+03 
  63516.1275     0.43176E+03 
  63556.4552     0.42247E+03 
  63596.7829     0.41332E+03 
  63637.1106     0.40433E+03 
  63677.4383     0.39553E+03 
  63717.7660     0.38691E+03 
  63758.0937     0.37850E+03 
  63798.4214     0.37029E+03 
  63838.7491     0.36231E+03 
  63879.0768     0.35454E+03 
  63919.4045     0.34699E+03 
  63959.7322     0.33966E+03 
  64000.0599     0.33256E+03 
  64040.3876     0.32566E+03 
  64080.7153     0.31897E+03 
  64121.0430     0.31249E+03 
  64161.3707     0.30620E+03 
  64201.6984     0.30010E+03 
  64242.0261     0.29418E+03 
  64282.3538     0.28843E+03 
  64322.6815     0.28283E+03 
  64363.0092     0.27739E+03 
  64403.3369     0.27209E+03 
  64443.6646     0.26692E+03 
  64483.9923     0.26187E+03 
  64524.3200     0.25694E+03 
  64564.6477     0.25210E+03 
  64604.9754     0.24736E+03 
  64645.3031     0.24270E+03 
  64685.6308     0.23813E+03 
  64725.9585     0.23363E+03 
  64766.2862     0.22920E+03 
  64806.6139     0.22483E+03 
  64846.9416     0.22053E+03 
  64887.2693     0.21629E+03 
  64927.5970     0.21211E+03 
  64967.9247     0.20799E+03 
  65008.2524     0.20393E+03 
  65048.5801     0.19994E+03 
  65088.9078     0.19601E+03 
  65129.2355     0.19215E+03 
  65169.5632     0.18835E+03 
  65209.8909     0.18463E+03 
  65250.2186     0.18098E+03 
  65290.5463     0.17740E+03 
  65330.8740     0.17389E+03 
  65371.2017     0.17047E+03 
  65411.5294     0.16711E+03 
  65451.8571     0.16384E+03 
  65492.1848     0.16064E+03 
  65532.5125     0.15751E+03 
  65572.8402     0.15446E+03 
  65613.1679     0.15149E+03 
  65653.4956     0.14858E+03 
  65693.8233     0.14575E+03 
  65734.1510     0.14298E+03 
  65774.4787     0.14028E+03 
  65814.8064     0.13765E+03 
  65855.1341     0.13507E+03 
  65895.4618     0.13256E+03 
  65935.7895     0.13011E+03 
  65976.1172     0.12771E+03 
  66016.4449     0.12536E+03 
  66056.7726     0.12307E+03 
  66097.1003     0.12082E+03 
  66137.4280     0.11862E+03 
  66177.7557     0.11647E+03 
  66218.0834     0.11436E+03 
  66258.4111     0.11229E+03 
  66298.7388     0.11026E+03 
  66339.0665     0.10826E+03 
  66379.3942     0.10631E+03 
  66419.7219     0.10438E+03 
  66460.0496     0.10250E+03 
  66500.3773     0.10065E+03 
  66540.7050     0.98827E+02 
  66581.0327     0.97040E+02 
  66621.3604     0.95286E+02 
  66661.6881     0.93564E+02 
  66702.0158     0.91873E+02 
  66742.3435     0.90213E+02 
  66782.6712     0.88585E+02 
  66822.9989     0.86988E+02 
  66863.3266     0.85421E+02 
  66903.6543     0.83885E+02 
  66943.9820     0.82379E+02 
  66984.3097     0.80903E+02 
  67024.6374     0.79456E+02 
  67064.9651     0.78039E+02 
  67105.2928     0.76651E+02 
  67145.6205     0.75290E+02 
  67185.9482     0.73958E+02 
  67226.2759     0.72653E+02 
  67266.6036     0.71374E+02 
  67306.9313     0.70122E+02 
  67347.2590     0.68895E+02 
  67387.5867     0.67693E+02 
  67427.9144     0.66515E+02 
  67468.2421     0.65360E+02 
  67508.5698     0.64229E+02 
  67548.8975     0.63120E+02 
  67589.2252     0.62032E+02 
  67629.5529     0.60966E+02 
  67669.8806     0.59920E+02 
  67710.2083     0.58893E+02 
  67750.5360     0.57886E+02 
  67790.8637     0.56898E+02 
  67831.1914     0.55928E+02 
  67871.5191     0.54975E+02 
  67911.8468     0.54040E+02 
  67952.1745     0.53122E+02 
  67992.5022     0.52219E+02 
  68032.8299     0.51333E+02 
  68073.1576     0.50463E+02 
  68113.4853     0.49607E+02 
  68153.8130     0.48767E+02 
  68194.1407     0.47942E+02 
  68234.4684     0.47130E+02 
  68274.7961     0.46333E+02 
  68315.1238     0.45550E+02 
  68355.4515     0.44781E+02 
  68395.7792     0.44025E+02 
  68436.1069     0.43283E+02 
  68476.4346     0.42553E+02 
  68516.7623     0.41836E+02 
  68557.0900     0.41132E+02 
  68597.4177     0.40440E+02 
  68637.7454     0.39761E+02 
  68678.0731     0.39093E+02 
  68718.4008     0.38437E+02 
  68758.7285     0.37793E+02 
  68799.0562     0.37160E+02 
  68839.3839     0.36538E+02 
  68879.7116     0.35927E+02 
  68920.0393     0.35327E+02 
  68960.3670     0.34737E+02 
  69000.6947     0.34157E+02 
  69041.0224     0.33587E+02 
  69081.3501     0.33026E+02 
  69121.6778     0.32476E+02 
  69162.0055     0.31934E+02 
  69202.3332     0.31402E+02 
  69242.6609     0.30879E+02 
  69282.9886     0.30364E+02 
  69323.3163     0.29858E+02 
  69363.6440     0.29360E+02 
  69403.9717     0.28870E+02 
  69444.2994     0.28389E+02 
  69484.6271     0.27915E+02 
  69524.9548     0.27448E+02 
  69565.2825     0.26989E+02 
  69605.6102     0.26538E+02 
  69645.9379     0.26094E+02 
  69686.2656     0.25656E+02 
  69726.5933     0.25226E+02 
  69766.9210     0.24803E+02 
  69807.2487     0.24386E+02 
  69847.5764     0.23975E+02 
  69887.9041     0.23571E+02 
  69928.2318     0.23174E+02 
  69968.5595     0.22782E+02 
  70008.8872     0.22397E+02 
  70049.2149     0.22018E+02 
  70089.5426     0.21644E+02 
  70129.8703     0.21276E+02 
  70170.1980     0.20914E+02 
  70210.5257     0.20558E+02 
  70250.8534     0.20207E+02 
  70291.1811     0.19861E+02 
  70331.5088     0.19521E+02 
  70371.8365     0.19186E+02 
  70412.1642     0.18856E+02 
  70452.4919     0.18531E+02 
  70492.8196     0.18211E+02 
  70533.1473     0.17895E+02 
  70573.4750     0.17585E+02 
  70613.8027     0.17279E+02 
  70654.1304     0.16978E+02 
  70694.4581     0.16681E+02 
  70734.7858     0.16389E+02 
  70775.1135     0.16101E+02 
  70815.4412     0.15817E+02 
  70855.7689     0.15537E+02 
  70896.0966     0.15262E+02 
  70936.4243     0.14990E+02 
  70976.7520     0.14723E+02 
  71017.0797     0.14459E+02 
  71057.4074     0.14200E+02 
  71097.7351     0.13944E+02 
  71138.0628     0.13691E+02 
  71178.3905     0.13443E+02 
  71218.7182     0.13198E+02 
  71259.0459     0.12956E+02 
  71299.3736     0.12718E+02 
  71339.7013     0.12484E+02 
  71380.0290     0.12252E+02 
  71420.3567     0.12024E+02 
  71460.6844     0.11800E+02 
  71501.0121     0.11578E+02 
  71541.3398     0.11360E+02 
  71581.6675     0.11145E+02 
  71621.9952     0.10932E+02 
  71662.3229     0.10723E+02 
  71702.6506     0.10517E+02 
  71742.9783     0.10314E+02 
  71783.3060     0.10114E+02 
  71823.6337     0.99160E+01 
  71863.9614     0.97213E+01 
  71904.2891     0.95293E+01 
  71944.6168     0.93401E+01 
  71984.9445     0.91536E+01 
  72025.2722     0.89697E+01 
  72065.5999     0.87884E+01 
  72105.9276     0.86097E+01 
  72146.2553     0.84335E+01 
  72186.5830     0.82598E+01 
  72226.9107     0.80886E+01 
  72267.2384     0.79198E+01 
  72307.5661     0.77534E+01 
  72347.8938     0.75894E+01 
  72388.2215     0.74277E+01 
  72428.5492     0.72684E+01 
  72468.8769     0.71113E+01 
  72509.2046     0.69564E+01 
  72549.5323     0.68038E+01 
  72589.8600     0.66534E+01 
