  32262.1600     0.37841E-03 
  32302.4877     0.36089E-03 
  32342.8154     0.34376E-03 
  32383.1431     0.32702E-03 
  32423.4708     0.31067E-03 
  32463.7985     0.29471E-03 
  32504.1262     0.27915E-03 
  32544.4539     0.26399E-03 
  32584.7816     0.24923E-03 
  32625.1093     0.23489E-03 
  32665.4370     0.22095E-03 
  32705.7647     0.20744E-03 
  32746.0924     0.19434E-03 
  32786.4201     0.18167E-03 
  32826.7478     0.16943E-03 
  32867.0755     0.15762E-03 
  32907.4032     0.14626E-03 
  32947.7309     0.13533E-03 
  32988.0586     0.12486E-03 
  33028.3863     0.11485E-03 
  33068.7140     0.10529E-03 
  33109.0417     0.96196E-04 
  33149.3694     0.87576E-04 
  33189.6971     0.79432E-04 
  33230.0248     0.71770E-04 
  33270.3525     0.64597E-04 
  33310.6802     0.57919E-04 
  33351.0079     0.51743E-04 
  33391.3356     0.46073E-04 
  33431.6633     0.40918E-04 
  33471.9910     0.36284E-04 
  33512.3187     0.32177E-04 
  33552.6464     0.28605E-04 
  33592.9741     0.25576E-04 
  33633.3018     0.23096E-04 
  33673.6295     0.21173E-04 
  33713.9572     0.19814E-04 
  33754.2849     0.19029E-04 
  33794.6126     0.18824E-04 
  33834.9403     0.19209E-04 
  33875.2680     0.20191E-04 
  33915.5957     0.21779E-04 
  33955.9234     0.23982E-04 
  33996.2511     0.26809E-04 
  34036.5788     0.30269E-04 
  34076.9065     0.34372E-04 
  34117.2342     0.39127E-04 
  34157.5619     0.44544E-04 
  34197.8896     0.50633E-04 
  34238.2173     0.57405E-04 
  34278.5450     0.64869E-04 
  34318.8727     0.73036E-04 
  34359.2004     0.81918E-04 
  34399.5281     0.91525E-04 
  34439.8558     0.10187E-03 
  34480.1835     0.11296E-03 
  34520.5112     0.12481E-03 
  34560.8389     0.13744E-03 
  34601.1666     0.15085E-03 
  34641.4943     0.16505E-03 
  34681.8220     0.18007E-03 
  34722.1497     0.19591E-03 
  34762.4774     0.21258E-03 
  34802.8051     0.23011E-03 
  34843.1328     0.24850E-03 
  34883.4605     0.26777E-03 
  34923.7882     0.28793E-03 
  34964.1159     0.30900E-03 
  35004.4436     0.33099E-03 
  35044.7713     0.35392E-03 
  35085.0990     0.37780E-03 
  35125.4267     0.40265E-03 
  35165.7544     0.42849E-03 
  35206.0821     0.45533E-03 
  35246.4098     0.48319E-03 
  35286.7375     0.51209E-03 
  35327.0652     0.54204E-03 
  35367.3929     0.57307E-03 
  35407.7206     0.60519E-03 
  35448.0483     0.63841E-03 
  35488.3760     0.67277E-03 
  35528.7037     0.70828E-03 
  35569.0314     0.74495E-03 
  35609.3591     0.78282E-03 
  35649.6868     0.82189E-03 
  35690.0145     0.86220E-03 
  35730.3422     0.90376E-03 
  35770.6699     0.94659E-03 
  35810.9976     0.99073E-03 
  35851.3253     0.10362E-02 
  35891.6530     0.10830E-02 
  35931.9807     0.11311E-02 
  35972.3084     0.11807E-02 
  36012.6361     0.12317E-02 
  36052.9638     0.12841E-02 
  36093.2915     0.13380E-02 
  36133.6192     0.13934E-02 
  36173.9469     0.14503E-02 
  36214.2746     0.15087E-02 
  36254.6023     0.15688E-02 
  36294.9300     0.16304E-02 
  36335.2577     0.16937E-02 
  36375.5854     0.17586E-02 
  36415.9131     0.18252E-02 
  36456.2408     0.18936E-02 
  36496.5685     0.19637E-02 
  36536.8962     0.20356E-02 
  36577.2239     0.21094E-02 
  36617.5516     0.21850E-02 
  36657.8793     0.22625E-02 
  36698.2070     0.23419E-02 
  36738.5347     0.24233E-02 
  36778.8624     0.25066E-02 
  36819.1901     0.25921E-02 
  36859.5178     0.26796E-02 
  36899.8455     0.27692E-02 
  36940.1732     0.28609E-02 
  36980.5009     0.29549E-02 
  37020.8286     0.30511E-02 
  37061.1563     0.31495E-02 
  37101.4840     0.32503E-02 
  37141.8117     0.33535E-02 
  37182.1394     0.34591E-02 
  37222.4671     0.35671E-02 
  37262.7948     0.36776E-02 
  37303.1225     0.37907E-02 
  37343.4502     0.39063E-02 
  37383.7779     0.40247E-02 
  37424.1056     0.41457E-02 
  37464.4333     0.42695E-02 
  37504.7610     0.43960E-02 
  37545.0887     0.45255E-02 
  37585.4164     0.46578E-02 
  37625.7441     0.47932E-02 
  37666.0718     0.49315E-02 
  37706.3995     0.50730E-02 
  37746.7272     0.52175E-02 
  37787.0549     0.53653E-02 
  37827.3826     0.55164E-02 
  37867.7103     0.56708E-02 
  37908.0380     0.58286E-02 
  37948.3657     0.59899E-02 
  37988.6934     0.61547E-02 
  38029.0211     0.63231E-02 
  38069.3488     0.64952E-02 
  38109.6765     0.66710E-02 
  38150.0042     0.68507E-02 
  38190.3319     0.70343E-02 
  38230.6596     0.72218E-02 
  38270.9873     0.74134E-02 
  38311.3150     0.76092E-02 
  38351.6427     0.78092E-02 
  38391.9704     0.80134E-02 
  38432.2981     0.82221E-02 
  38472.6258     0.84352E-02 
  38512.9535     0.86530E-02 
  38553.2812     0.88754E-02 
  38593.6089     0.91025E-02 
  38633.9366     0.93345E-02 
  38674.2643     0.95715E-02 
  38714.5920     0.98135E-02 
  38754.9197     0.10061E-01 
  38795.2474     0.10313E-01 
  38835.5751     0.10571E-01 
  38875.9028     0.10834E-01 
  38916.2305     0.11103E-01 
  38956.5582     0.11378E-01 
  38996.8859     0.11658E-01 
  39037.2136     0.11945E-01 
  39077.5413     0.12237E-01 
  39117.8690     0.12536E-01 
  39158.1967     0.12841E-01 
  39198.5244     0.13152E-01 
  39238.8521     0.13470E-01 
  39279.1798     0.13795E-01 
  39319.5075     0.14127E-01 
  39359.8352     0.14465E-01 
  39400.1629     0.14811E-01 
  39440.4906     0.15165E-01 
  39480.8183     0.15525E-01 
  39521.1460     0.15894E-01 
  39561.4737     0.16270E-01 
  39601.8014     0.16654E-01 
  39642.1291     0.17046E-01 
  39682.4568     0.17447E-01 
  39722.7845     0.17856E-01 
  39763.1122     0.18273E-01 
  39803.4399     0.18700E-01 
  39843.7676     0.19135E-01 
  39884.0953     0.19580E-01 
  39924.4230     0.20035E-01 
  39964.7507     0.20499E-01 
  40005.0784     0.20972E-01 
  40045.4061     0.21456E-01 
  40085.7338     0.21951E-01 
  40126.0615     0.22455E-01 
  40166.3892     0.22971E-01 
  40206.7169     0.23497E-01 
  40247.0446     0.24035E-01 
  40287.3723     0.24585E-01 
  40327.7000     0.25146E-01 
  40368.0277     0.25719E-01 
  40408.3554     0.26304E-01 
  40448.6831     0.26902E-01 
  40489.0108     0.27513E-01 
  40529.3385     0.28136E-01 
  40569.6662     0.28774E-01 
  40609.9939     0.29425E-01 
  40650.3216     0.30090E-01 
  40690.6493     0.30769E-01 
  40730.9770     0.31463E-01 
  40771.3047     0.32172E-01 
  40811.6324     0.32897E-01 
  40851.9601     0.33637E-01 
  40892.2878     0.34394E-01 
  40932.6155     0.35166E-01 
  40972.9432     0.35956E-01 
  41013.2709     0.36763E-01 
  41053.5986     0.37587E-01 
  41093.9263     0.38430E-01 
  41134.2540     0.39291E-01 
  41174.5817     0.40171E-01 
  41214.9094     0.41070E-01 
  41255.2371     0.41989E-01 
  41295.5648     0.42929E-01 
  41335.8925     0.43889E-01 
  41376.2202     0.44870E-01 
  41416.5479     0.45874E-01 
  41456.8756     0.46899E-01 
  41497.2033     0.47947E-01 
  41537.5310     0.49019E-01 
  41577.8587     0.50115E-01 
  41618.1864     0.51235E-01 
  41658.5141     0.52380E-01 
  41698.8418     0.53551E-01 
  41739.1695     0.54749E-01 
  41779.4972     0.55973E-01 
  41819.8249     0.57225E-01 
  41860.1526     0.58506E-01 
  41900.4803     0.59815E-01 
  41940.8080     0.61155E-01 
  41981.1357     0.62525E-01 
  42021.4634     0.63926E-01 
  42061.7911     0.65359E-01 
  42102.1188     0.66826E-01 
  42142.4465     0.68326E-01 
  42182.7742     0.69860E-01 
  42223.1019     0.71430E-01 
  42263.4296     0.73037E-01 
  42303.7573     0.74681E-01 
  42344.0850     0.76363E-01 
  42384.4127     0.78084E-01 
  42424.7404     0.79846E-01 
  42465.0681     0.81649E-01 
  42505.3958     0.83494E-01 
  42545.7235     0.85383E-01 
  42586.0512     0.87317E-01 
  42626.3789     0.89296E-01 
  42666.7066     0.91323E-01 
  42707.0343     0.93397E-01 
  42747.3620     0.95522E-01 
  42787.6897     0.97697E-01 
  42828.0174     0.99925E-01 
  42868.3451     0.10221E+00 
  42908.6728     0.10454E+00 
  42949.0005     0.10694E+00 
  42989.3282     0.10939E+00 
  43029.6559     0.11190E+00 
  43069.9836     0.11447E+00 
  43110.3113     0.11711E+00 
  43150.6390     0.11981E+00 
  43190.9667     0.12257E+00 
  43231.2944     0.12541E+00 
  43271.6221     0.12832E+00 
  43311.9498     0.13129E+00 
  43352.2775     0.13435E+00 
  43392.6052     0.13748E+00 
  43432.9329     0.14069E+00 
  43473.2606     0.14398E+00 
  43513.5883     0.14735E+00 
  43553.9160     0.15081E+00 
  43594.2437     0.15435E+00 
  43634.5714     0.15799E+00 
  43674.8991     0.16172E+00 
  43715.2268     0.16555E+00 
  43755.5545     0.16948E+00 
  43795.8822     0.17350E+00 
  43836.2099     0.17764E+00 
  43876.5376     0.18188E+00 
  43916.8653     0.18623E+00 
  43957.1930     0.19070E+00 
  43997.5207     0.19529E+00 
  44037.8484     0.19999E+00 
  44078.1761     0.20483E+00 
  44118.5038     0.20979E+00 
  44158.8315     0.21488E+00 
  44199.1592     0.22012E+00 
  44239.4869     0.22549E+00 
  44279.8146     0.23101E+00 
  44320.1423     0.23669E+00 
  44360.4700     0.24251E+00 
  44400.7977     0.24850E+00 
  44441.1254     0.25465E+00 
  44481.4531     0.26098E+00 
  44521.7808     0.26748E+00 
  44562.1085     0.27416E+00 
  44602.4362     0.28103E+00 
  44642.7639     0.28810E+00 
  44683.0916     0.29537E+00 
  44723.4193     0.30284E+00 
  44763.7470     0.31053E+00 
  44804.0747     0.31843E+00 
  44844.4024     0.32657E+00 
  44884.7301     0.33495E+00 
  44925.0578     0.34356E+00 
  44965.3855     0.35244E+00 
  45005.7132     0.36157E+00 
  45046.0409     0.37097E+00 
  45086.3686     0.38065E+00 
  45126.6963     0.39063E+00 
  45167.0240     0.40090E+00 
  45207.3517     0.41148E+00 
  45247.6794     0.42239E+00 
  45288.0071     0.43363E+00 
  45328.3348     0.44521E+00 
  45368.6625     0.45715E+00 
  45408.9902     0.46946E+00 
  45449.3179     0.48216E+00 
  45489.6456     0.49525E+00 
  45529.9733     0.50876E+00 
  45570.3010     0.52270E+00 
  45610.6287     0.53708E+00 
  45650.9564     0.55192E+00 
  45691.2841     0.56724E+00 
  45731.6118     0.58306E+00 
  45771.9395     0.59940E+00 
  45812.2672     0.61627E+00 
  45852.5949     0.63370E+00 
  45892.9226     0.65172E+00 
  45933.2503     0.67033E+00 
  45973.5780     0.68958E+00 
  46013.9057     0.70947E+00 
  46054.2334     0.73005E+00 
  46094.5611     0.75133E+00 
  46134.8888     0.77335E+00 
  46175.2165     0.79613E+00 
  46215.5442     0.81971E+00 
  46255.8719     0.84413E+00 
  46296.1996     0.86941E+00 
  46336.5273     0.89560E+00 
  46376.8550     0.92273E+00 
  46417.1827     0.95085E+00 
  46457.5104     0.98000E+00 
  46497.8381     0.10102E+01 
  46538.1658     0.10416E+01 
  46578.4935     0.10741E+01 
  46618.8212     0.11078E+01 
  46659.1489     0.11428E+01 
  46699.4766     0.11792E+01 
  46739.8043     0.12170E+01 
  46780.1320     0.12562E+01 
  46820.4597     0.12970E+01 
  46860.7874     0.13394E+01 
  46901.1151     0.13834E+01 
  46941.4428     0.14293E+01 
  46981.7705     0.14770E+01 
  47022.0982     0.15267E+01 
  47062.4259     0.15784E+01 
  47102.7536     0.16323E+01 
  47143.0813     0.16884E+01 
  47183.4090     0.17469E+01 
  47223.7367     0.18080E+01 
  47264.0644     0.18717E+01 
  47304.3921     0.19381E+01 
  47344.7198     0.20075E+01 
  47385.0475     0.20800E+01 
  47425.3752     0.21558E+01 
  47465.7029     0.22350E+01 
  47506.0306     0.23178E+01 
  47546.3583     0.24045E+01 
  47586.6860     0.24953E+01 
  47627.0137     0.25904E+01 
  47667.3414     0.26901E+01 
  47707.6691     0.27946E+01 
  47747.9968     0.29042E+01 
  47788.3245     0.30194E+01 
  47828.6522     0.31403E+01 
  47868.9799     0.32674E+01 
  47909.3076     0.34011E+01 
  47949.6353     0.35417E+01 
  47989.9630     0.36899E+01 
  48030.2907     0.38460E+01 
  48070.6184     0.40106E+01 
  48110.9461     0.41843E+01 
  48151.2738     0.43678E+01 
  48191.6015     0.45617E+01 
  48231.9292     0.47668E+01 
  48272.2569     0.49839E+01 
  48312.5846     0.52139E+01 
  48352.9123     0.54579E+01 
  48393.2400     0.57168E+01 
  48433.5677     0.59920E+01 
  48473.8954     0.62846E+01 
  48514.2231     0.65961E+01 
  48554.5508     0.69281E+01 
  48594.8785     0.72824E+01 
  48635.2062     0.76609E+01 
  48675.5339     0.80657E+01 
  48715.8616     0.84992E+01 
  48756.1893     0.89641E+01 
  48796.5170     0.94634E+01 
  48836.8447     0.10000E+02 
  48877.1724     0.10579E+02 
  48917.5001     0.11202E+02 
  48957.8278     0.11877E+02 
  48998.1555     0.12606E+02 
  49038.4832     0.13398E+02 
  49078.8109     0.14257E+02 
  49119.1386     0.15194E+02 
  49159.4663     0.16215E+02 
  49199.7940     0.17332E+02 
  49240.1217     0.18555E+02 
  49280.4494     0.19900E+02 
  49320.7771     0.21380E+02 
  49361.1048     0.23015E+02 
  49401.4325     0.24825E+02 
  49441.7602     0.26834E+02 
  49482.0879     0.29071E+02 
  49522.4156     0.31569E+02 
  49562.7433     0.34365E+02 
  49603.0710     0.37503E+02 
  49643.3987     0.41035E+02 
  49683.7264     0.45017E+02 
  49724.0541     0.49513E+02 
  49764.3818     0.54592E+02 
  49804.7095     0.60323E+02 
  49845.0372     0.66772E+02 
  49885.3649     0.73988E+02 
  49925.6926     0.81987E+02 
  49966.0203     0.90732E+02 
  50006.3480     0.10010E+03 
  50046.6757     0.10989E+03 
  50087.0034     0.11977E+03 
  50127.3311     0.12934E+03 
  50167.6588     0.13815E+03 
  50207.9865     0.14576E+03 
  50248.3142     0.15174E+03 
  50288.6419     0.15573E+03 
  50328.9696     0.15745E+03 
  50369.2973     0.15674E+03 
  50409.6250     0.15354E+03 
  50449.9527     0.14788E+03 
  50490.2804     0.13992E+03 
  50530.6081     0.12994E+03 
  50570.9358     0.11832E+03 
  50611.2635     0.10553E+03 
  50651.5912     0.92106E+02 
  50691.9189     0.78581E+02 
  50732.2466     0.65457E+02 
  50772.5743     0.53167E+02 
  50812.9020     0.42063E+02 
  50853.2297     0.32394E+02 
  50893.5574     0.24306E+02 
  50933.8851     0.17861E+02 
  50974.2128     0.13060E+02 
  51014.5405     0.98750E+01 
  51054.8682     0.82736E+01 
  51095.1959     0.82365E+01 
  51135.5236     0.97735E+01 
  51175.8513     0.12931E+02 
  51216.1790     0.17794E+02 
  51256.5067     0.24473E+02 
  51296.8344     0.33098E+02 
  51337.1621     0.43807E+02 
  51377.4898     0.56741E+02 
  51417.8175     0.72040E+02 
  51458.1452     0.89820E+02 
  51498.4729     0.11015E+03 
  51538.8006     0.13302E+03 
  51579.1283     0.15831E+03 
  51619.4560     0.18572E+03 
  51659.7837     0.21483E+03 
  51700.1114     0.24507E+03 
  51740.4391     0.27572E+03 
  51780.7668     0.30598E+03 
  51821.0945     0.33497E+03 
  51861.4222     0.36175E+03 
  51901.7499     0.38541E+03 
  51942.0776     0.40510E+03 
  51982.4053     0.42006E+03 
  52022.7330     0.42970E+03 
  52063.0607     0.43360E+03 
  52103.3884     0.43161E+03 
  52143.7161     0.42382E+03 
  52184.0438     0.41058E+03 
  52224.3715     0.39241E+03 
  52264.6992     0.37000E+03 
  52305.0269     0.34416E+03 
  52345.3546     0.31580E+03 
  52385.6823     0.28585E+03 
  52426.0100     0.25518E+03 
  52466.3377     0.22458E+03 
  52506.6654     0.19474E+03 
  52546.9931     0.16621E+03 
  52587.3208     0.13942E+03 
  52627.6485     0.11469E+03 
  52667.9762     0.92245E+02 
  52708.3039     0.72213E+02 
  52748.6316     0.54705E+02 
  52788.9593     0.39811E+02 
  52829.2870     0.27618E+02 
  52869.6147     0.18213E+02 
  52909.9424     0.11697E+02 
  52950.2701     0.81849E+01 
  52990.5978     0.78075E+01 
  53030.9255     0.10697E+02 
  53071.2532     0.16967E+02 
  53111.5809     0.26692E+02 
  53151.9086     0.39890E+02 
  53192.2363     0.56497E+02 
  53232.5640     0.76360E+02 
  53272.8917     0.99220E+02 
  53313.2194     0.12470E+03 
  53353.5471     0.15233E+03 
  53393.8748     0.18150E+03 
  53434.2025     0.21152E+03 
  53474.5302     0.24162E+03 
  53514.8579     0.27099E+03 
  53555.1856     0.29879E+03 
  53595.5133     0.32422E+03 
  53635.8410     0.34657E+03 
  53676.1687     0.36521E+03 
  53716.4964     0.37965E+03 
  53756.8241     0.38954E+03 
  53797.1518     0.39469E+03 
  53837.4795     0.39507E+03 
  53877.8072     0.39085E+03 
  53918.1349     0.38233E+03 
  53958.4626     0.36994E+03 
  53998.7903     0.35417E+03 
  54039.1180     0.33560E+03 
  54079.4457     0.31480E+03 
  54119.7734     0.29239E+03 
  54160.1011     0.26893E+03 
  54200.4288     0.24492E+03 
  54240.7565     0.22082E+03 
  54281.0842     0.19702E+03 
  54321.4119     0.17388E+03 
  54361.7396     0.15169E+03 
  54402.0673     0.13069E+03 
  54442.3950     0.11108E+03 
  54482.7227     0.93042E+02 
  54523.0504     0.76742E+02 
  54563.3781     0.62339E+02 
  54603.7058     0.49983E+02 
  54644.0335     0.39808E+02 
  54684.3612     0.31935E+02 
  54724.6889     0.26467E+02 
  54765.0166     0.23477E+02 
  54805.3443     0.23003E+02 
  54845.6720     0.25041E+02 
  54885.9997     0.29532E+02 
  54926.3274     0.36366E+02 
  54966.6551     0.45367E+02 
  55006.9828     0.56300E+02 
  55047.3105     0.68869E+02 
  55087.6382     0.82727E+02 
  55127.9659     0.97488E+02 
  55168.2936     0.11274E+03 
  55208.6213     0.12805E+03 
  55248.9490     0.14299E+03 
  55289.2767     0.15715E+03 
  55329.6044     0.17014E+03 
  55369.9321     0.18164E+03 
  55410.2598     0.19138E+03 
  55450.5875     0.19915E+03 
  55490.9152     0.20483E+03 
  55531.2429     0.20834E+03 
  55571.5706     0.20971E+03 
  55611.8983     0.20899E+03 
  55652.2260     0.20632E+03 
  55692.5537     0.20187E+03 
  55732.8814     0.19583E+03 
  55773.2091     0.18841E+03 
  55813.5368     0.17986E+03 
  55853.8645     0.17039E+03 
  55894.1922     0.16025E+03 
  55934.5199     0.14963E+03 
  55974.8476     0.13874E+03 
  56015.1753     0.12775E+03 
  56055.5030     0.11684E+03 
  56095.8307     0.10615E+03 
  56136.1584     0.95846E+02 
  56176.4861     0.86038E+02 
  56216.8138     0.76848E+02 
  56257.1415     0.68385E+02 
  56297.4692     0.60745E+02 
  56337.7969     0.54015E+02 
  56378.1246     0.48266E+02 
  56418.4523     0.43555E+02 
  56458.7800     0.39921E+02 
  56499.1077     0.37385E+02 
  56539.4354     0.35945E+02 
  56579.7631     0.35573E+02 
  56620.0908     0.36222E+02 
  56660.4185     0.37817E+02 
  56700.7462     0.40266E+02 
  56741.0739     0.43455E+02 
  56781.4016     0.47252E+02 
  56821.7293     0.51512E+02 
  56862.0570     0.56084E+02 
  56902.3847     0.60813E+02 
  56942.7124     0.65547E+02 
  56983.0401     0.70142E+02 
  57023.3678     0.74464E+02 
  57063.6955     0.78394E+02 
  57104.0232     0.81835E+02 
  57144.3509     0.84709E+02 
  57184.6786     0.86960E+02 
  57225.0063     0.88556E+02 
  57265.3340     0.89481E+02 
  57305.6617     0.89743E+02 
  57345.9894     0.89365E+02 
  57386.3171     0.88385E+02 
  57426.6448     0.86851E+02 
  57466.9725     0.84820E+02 
  57507.3002     0.82354E+02 
  57547.6279     0.79518E+02 
  57587.9556     0.76379E+02 
  57628.2833     0.73006E+02 
  57668.6110     0.69463E+02 
  57708.9387     0.65812E+02 
  57749.2664     0.62113E+02 
  57789.5941     0.58424E+02 
  57829.9218     0.54797E+02 
  57870.2495     0.51282E+02 
  57910.5772     0.47925E+02 
  57950.9049     0.44766E+02 
  57991.2326     0.41841E+02 
  58031.5603     0.39183E+02 
  58071.8880     0.36816E+02 
  58112.2157     0.34759E+02 
  58152.5434     0.33024E+02 
  58192.8711     0.31617E+02 
  58233.1988     0.30538E+02 
  58273.5265     0.29777E+02 
  58313.8542     0.29318E+02 
  58354.1819     0.29140E+02 
  58394.5096     0.29215E+02 
  58434.8373     0.29510E+02 
  58475.1650     0.29989E+02 
  58515.4927     0.30613E+02 
  58555.8204     0.31342E+02 
  58596.1481     0.32134E+02 
  58636.4758     0.32950E+02 
  58676.8035     0.33753E+02 
  58717.1312     0.34509E+02 
  58757.4589     0.35189E+02 
  58797.7866     0.35766E+02 
  58838.1143     0.36221E+02 
  58878.4420     0.36539E+02 
  58918.7697     0.36709E+02 
  58959.0974     0.36728E+02 
  58999.4251     0.36594E+02 
  59039.7528     0.36310E+02 
  59080.0805     0.35885E+02 
  59120.4082     0.35327E+02 
  59160.7359     0.34648E+02 
  59201.0636     0.33863E+02 
  59241.3913     0.32986E+02 
  59281.7190     0.32032E+02 
  59322.0467     0.31018E+02 
  59362.3744     0.29959E+02 
  59402.7021     0.28871E+02 
  59443.0298     0.27769E+02 
  59483.3575     0.26668E+02 
  59523.6852     0.25581E+02 
  59564.0129     0.24521E+02 
  59604.3406     0.23499E+02 
  59644.6683     0.22526E+02 
  59684.9960     0.21609E+02 
  59725.3237     0.20757E+02 
  59765.6514     0.19976E+02 
  59805.9791     0.19268E+02 
  59846.3068     0.18637E+02 
  59886.6345     0.18082E+02 
  59926.9622     0.17604E+02 
  59967.2899     0.17198E+02 
  60007.6176     0.16862E+02 
  60047.9453     0.16589E+02 
  60088.2730     0.16374E+02 
  60128.6007     0.16207E+02 
  60168.9284     0.16083E+02 
  60209.2561     0.15992E+02 
  60249.5838     0.15925E+02 
  60289.9115     0.15875E+02 
  60330.2392     0.15833E+02 
  60370.5669     0.15792E+02 
  60410.8946     0.15745E+02 
  60451.2223     0.15687E+02 
  60491.5500     0.15613E+02 
  60531.8777     0.15518E+02 
  60572.2054     0.15401E+02 
  60612.5331     0.15259E+02 
  60652.8608     0.15091E+02 
  60693.1885     0.14897E+02 
  60733.5162     0.14679E+02 
  60773.8439     0.14436E+02 
  60814.1716     0.14171E+02 
  60854.4993     0.13887E+02 
  60894.8270     0.13586E+02 
  60935.1547     0.13270E+02 
  60975.4824     0.12943E+02 
  61015.8101     0.12608E+02 
  61056.1378     0.12268E+02 
  61096.4655     0.11926E+02 
  61136.7932     0.11585E+02 
  61177.1209     0.11247E+02 
  61217.4486     0.10916E+02 
  61257.7763     0.10593E+02 
  61298.1040     0.10281E+02 
  61338.4317     0.99814E+01 
  61378.7594     0.96955E+01 
  61419.0871     0.94245E+01 
  61459.4148     0.91692E+01 
  61499.7425     0.89301E+01 
  61540.0702     0.87074E+01 
  61580.3979     0.85008E+01 
  61620.7256     0.83099E+01 
  61661.0533     0.81338E+01 
  61701.3810     0.79716E+01 
  61741.7087     0.78221E+01 
  61782.0364     0.76841E+01 
  61822.3641     0.75559E+01 
  61862.6918     0.74362E+01 
  61903.0195     0.73234E+01 
  61943.3472     0.72160E+01 
  61983.6749     0.71126E+01 
  62024.0026     0.70120E+01 
  62064.3303     0.69127E+01 
  62104.6580     0.68139E+01 
  62144.9857     0.67146E+01 
  62185.3134     0.66141E+01 
  62225.6411     0.65118E+01 
  62265.9688     0.64074E+01 
  62306.2965     0.63005E+01 
  62346.6242     0.61911E+01 
  62386.9519     0.60792E+01 
  62427.2796     0.59650E+01 
  62467.6073     0.58487E+01 
  62507.9350     0.57307E+01 
  62548.2627     0.56113E+01 
  62588.5904     0.54910E+01 
  62628.9181     0.53703E+01 
  62669.2458     0.52496E+01 
  62709.5735     0.51294E+01 
  62749.9012     0.50102E+01 
  62790.2289     0.48925E+01 
  62830.5566     0.47768E+01 
  62870.8843     0.46633E+01 
  62911.2120     0.45525E+01 
  62951.5397     0.44447E+01 
  62991.8674     0.43401E+01 
  63032.1951     0.42390E+01 
  63072.5228     0.41414E+01 
  63112.8505     0.40475E+01 
  63153.1782     0.39574E+01 
  63193.5059     0.38709E+01 
  63233.8336     0.37880E+01 
  63274.1613     0.37087E+01 
  63314.4890     0.36327E+01 
  63354.8167     0.35599E+01 
  63395.1444     0.34901E+01 
  63435.4721     0.34230E+01 
  63475.7998     0.33583E+01 
  63516.1275     0.32959E+01 
  63556.4552     0.32355E+01 
  63596.7829     0.31768E+01 
  63637.1106     0.31195E+01 
  63677.4383     0.30636E+01 
  63717.7660     0.30087E+01 
  63758.0937     0.29547E+01 
  63798.4214     0.29015E+01 
  63838.7491     0.28489E+01 
  63879.0768     0.27968E+01 
  63919.4045     0.27452E+01 
  63959.7322     0.26940E+01 
  64000.0599     0.26432E+01 
  64040.3876     0.25928E+01 
  64080.7153     0.25428E+01 
  64121.0430     0.24932E+01 
  64161.3707     0.24441E+01 
  64201.6984     0.23954E+01 
  64242.0261     0.23473E+01 
  64282.3538     0.22999E+01 
  64322.6815     0.22530E+01 
  64363.0092     0.22070E+01 
  64403.3369     0.21616E+01 
  64443.6646     0.21172E+01 
  64483.9923     0.20736E+01 
  64524.3200     0.20310E+01 
  64564.6477     0.19893E+01 
  64604.9754     0.19486E+01 
  64645.3031     0.19090E+01 
  64685.6308     0.18703E+01 
  64725.9585     0.18327E+01 
  64766.2862     0.17962E+01 
  64806.6139     0.17606E+01 
  64846.9416     0.17261E+01 
  64887.2693     0.16925E+01 
  64927.5970     0.16599E+01 
  64967.9247     0.16282E+01 
  65008.2524     0.15974E+01 
  65048.5801     0.15673E+01 
  65088.9078     0.15381E+01 
  65129.2355     0.15096E+01 
  65169.5632     0.14818E+01 
  65209.8909     0.14547E+01 
  65250.2186     0.14281E+01 
  65290.5463     0.14022E+01 
  65330.8740     0.13767E+01 
  65371.2017     0.13518E+01 
  65411.5294     0.13273E+01 
  65451.8571     0.13032E+01 
  65492.1848     0.12796E+01 
  65532.5125     0.12564E+01 
  65572.8402     0.12336E+01 
  65613.1679     0.12111E+01 
  65653.4956     0.11890E+01 
  65693.8233     0.11673E+01 
  65734.1510     0.11459E+01 
  65774.4787     0.11249E+01 
  65814.8064     0.11042E+01 
  65855.1341     0.10839E+01 
  65895.4618     0.10639E+01 
  65935.7895     0.10443E+01 
  65976.1172     0.10250E+01 
  66016.4449     0.10061E+01 
  66056.7726     0.98761E+00 
  66097.1003     0.96944E+00 
  66137.4280     0.95164E+00 
  66177.7557     0.93421E+00 
  66218.0834     0.91713E+00 
  66258.4111     0.90042E+00 
  66298.7388     0.88407E+00 
  66339.0665     0.86807E+00 
  66379.3942     0.85241E+00 
  66419.7219     0.83710E+00 
  66460.0496     0.82213E+00 
  66500.3773     0.80748E+00 
  66540.7050     0.79315E+00 
  66581.0327     0.77913E+00 
  66621.3604     0.76541E+00 
  66661.6881     0.75199E+00 
  66702.0158     0.73884E+00 
  66742.3435     0.72596E+00 
  66782.6712     0.71335E+00 
  66822.9989     0.70099E+00 
  66863.3266     0.68887E+00 
  66903.6543     0.67698E+00 
  66943.9820     0.66532E+00 
  66984.3097     0.65388E+00 
  67024.6374     0.64265E+00 
  67064.9651     0.63162E+00 
  67105.2928     0.62079E+00 
  67145.6205     0.61016E+00 
  67185.9482     0.59971E+00 
  67226.2759     0.58945E+00 
  67266.6036     0.57936E+00 
  67306.9313     0.56945E+00 
  67347.2590     0.55972E+00 
  67387.5867     0.55015E+00 
  67427.9144     0.54075E+00 
  67468.2421     0.53152E+00 
  67508.5698     0.52244E+00 
  67548.8975     0.51353E+00 
  67589.2252     0.50477E+00 
  67629.5529     0.49618E+00 
  67669.8806     0.48773E+00 
  67710.2083     0.47944E+00 
  67750.5360     0.47129E+00 
  67790.8637     0.46330E+00 
  67831.1914     0.45545E+00 
  67871.5191     0.44774E+00 
  67911.8468     0.44017E+00 
  67952.1745     0.43274E+00 
  67992.5022     0.42545E+00 
  68032.8299     0.41829E+00 
  68073.1576     0.41126E+00 
  68113.4853     0.40435E+00 
  68153.8130     0.39757E+00 
  68194.1407     0.39092E+00 
  68234.4684     0.38438E+00 
  68274.7961     0.37795E+00 
  68315.1238     0.37164E+00 
  68355.4515     0.36544E+00 
  68395.7792     0.35935E+00 
  68436.1069     0.35336E+00 
  68476.4346     0.34747E+00 
  68516.7623     0.34169E+00 
  68557.0900     0.33600E+00 
  68597.4177     0.33040E+00 
  68637.7454     0.32490E+00 
  68678.0731     0.31949E+00 
  68718.4008     0.31417E+00 
  68758.7285     0.30894E+00 
  68799.0562     0.30379E+00 
  68839.3839     0.29872E+00 
  68879.7116     0.29374E+00 
  68920.0393     0.28883E+00 
  68960.3670     0.28400E+00 
  69000.6947     0.27926E+00 
  69041.0224     0.27458E+00 
  69081.3501     0.26999E+00 
  69121.6778     0.26546E+00 
  69162.0055     0.26101E+00 
  69202.3332     0.25663E+00 
  69242.6609     0.25231E+00 
  69282.9886     0.24807E+00 
  69323.3163     0.24389E+00 
  69363.6440     0.23978E+00 
  69403.9717     0.23574E+00 
  69444.2994     0.23175E+00 
  69484.6271     0.22783E+00 
  69524.9548     0.22398E+00 
  69565.2825     0.22018E+00 
  69605.6102     0.21644E+00 
  69645.9379     0.21276E+00 
  69686.2656     0.20914E+00 
  69726.5933     0.20557E+00 
  69766.9210     0.20206E+00 
  69807.2487     0.19860E+00 
  69847.5764     0.19520E+00 
  69887.9041     0.19185E+00 
  69928.2318     0.18854E+00 
  69968.5595     0.18529E+00 
  70008.8872     0.18209E+00 
  70049.2149     0.17894E+00 
  70089.5426     0.17583E+00 
  70129.8703     0.17277E+00 
  70170.1980     0.16975E+00 
  70210.5257     0.16678E+00 
  70250.8534     0.16386E+00 
  70291.1811     0.16097E+00 
  70331.5088     0.15813E+00 
  70371.8365     0.15533E+00 
  70412.1642     0.15258E+00 
  70452.4919     0.14986E+00 
  70492.8196     0.14718E+00 
  70533.1473     0.14454E+00 
  70573.4750     0.14194E+00 
  70613.8027     0.13937E+00 
  70654.1304     0.13685E+00 
  70694.4581     0.13436E+00 
  70734.7858     0.13190E+00 
  70775.1135     0.12949E+00 
  70815.4412     0.12710E+00 
  70855.7689     0.12475E+00 
  70896.0966     0.12244E+00 
  70936.4243     0.12015E+00 
  70976.7520     0.11790E+00 
  71017.0797     0.11568E+00 
  71057.4074     0.11350E+00 
  71097.7351     0.11134E+00 
  71138.0628     0.10922E+00 
  71178.3905     0.10712E+00 
  71218.7182     0.10506E+00 
  71259.0459     0.10302E+00 
  71299.3736     0.10102E+00 
  71339.7013     0.99042E-01 
  71380.0290     0.97092E-01 
  71420.3567     0.95171E-01 
  71460.6844     0.93276E-01 
  71501.0121     0.91409E-01 
  71541.3398     0.89568E-01 
  71581.6675     0.87753E-01 
  71621.9952     0.85964E-01 
  71662.3229     0.84201E-01 
  71702.6506     0.82462E-01 
  71742.9783     0.80748E-01 
  71783.3060     0.79058E-01 
  71823.6337     0.77393E-01 
  71863.9614     0.75751E-01 
  71904.2891     0.74133E-01 
  71944.6168     0.72537E-01 
  71984.9445     0.70965E-01 
  72025.2722     0.69415E-01 
  72065.5999     0.67887E-01 
  72105.9276     0.66381E-01 
  72146.2553     0.64897E-01 
  72186.5830     0.63435E-01 
  72226.9107     0.61993E-01 
  72267.2384     0.60572E-01 
  72307.5661     0.59172E-01 
  72347.8938     0.57793E-01 
  72388.2215     0.56434E-01 
  72428.5492     0.55094E-01 
  72468.8769     0.53775E-01 
  72509.2046     0.52475E-01 
  72549.5323     0.51194E-01 
  72589.8600     0.49933E-01 
