     4.00000      7.9147261    
     4.01200      8.2434263    
     4.02400      8.5765133    
     4.03600      8.9141200    
     4.04800      9.2563828    
     4.06000      9.6034415    
     4.07200      9.9554401    
     4.08400      10.312526    
     4.09600      10.674852    
     4.10800      11.042574    
     4.12000      11.415853    
     4.13200      11.794854    
     4.14400      12.179748    
     4.15600      12.570710    
     4.16800      12.967921    
     4.18000      13.371568    
     4.19200      13.781842    
     4.20400      14.198941    
     4.21600      14.623070    
     4.22800      15.054439    
     4.24000      15.493267    
     4.25200      15.939778    
     4.26400      16.394205    
     4.27600      16.856786    
     4.28800      17.327770    
     4.30000      17.807414    
     4.31200      18.295982    
     4.32400      18.793749    
     4.33600      19.300999    
     4.34800      19.818026    
     4.36000      20.345134    
     4.37200      20.882639    
     4.38400      21.430867    
     4.39600      21.990159    
     4.40800      22.560865    
     4.42000      23.143349    
     4.43200      23.737992    
     4.44400      24.345185    
     4.45600      24.965337    
     4.46800      25.598872    
     4.48000      26.246231    
     4.49200      26.907873    
     4.50400      27.584275    
     4.51600      28.275932    
     4.52800      28.983361    
     4.54000      29.707101    
     4.55200      30.447712    
     4.56400      31.205779    
     4.57600      31.981911    
     4.58800      32.776743    
     4.60000      33.590940    
     4.61200      34.425193    
     4.62400      35.280228    
     4.63600      36.156800    
     4.64800      37.055701    
     4.66000      37.977758    
     4.67200      38.923837    
     4.68400      39.894846    
     4.69600      40.891735    
     4.70800      41.915500    
     4.72000      42.967188    
     4.73200      44.047894    
     4.74400      45.158772    
     4.75600      46.301032    
     4.76800      47.475947    
     4.78000      48.684856    
     4.79200      49.929169    
     4.80400      51.210371    
     4.81600      52.530029    
     4.82800      53.889794    
     4.84000      55.291410    
     4.85200      56.736720    
     4.86400      58.227673    
     4.87600      59.766329    
     4.88800      61.354872    
     4.90000      62.995617    
     4.91200      64.691019    
     4.92400      66.443686    
     4.93600      68.256389    
     4.94800      70.132077    
     4.96000      72.073893    
     4.97200      74.085184    
     4.98400      76.169527    
     4.99600      78.330742    
     5.00800      80.572919    
     5.02000      82.900439    
     5.03200      85.318003    
     5.04400      87.830662    
     5.05600      90.443851    
     5.06800      93.163428    
     5.08000      95.995718    
     5.09200      98.947563    
     5.10400      102.02638    
     5.11600      105.24021    
     5.12800      108.59782    
     5.14000      112.10878    
     5.15200      115.78353    
     5.16400      119.63356    
     5.17600      123.67147    
     5.18800      127.91120    
     5.20000      132.36821    
     5.21200      137.05967    
     5.22400      142.00481    
     5.23600      147.22522    
     5.24800      152.74531    
     5.26000      158.59282    
     5.27200      164.79950    
     5.28400      171.40191    
     5.29600      178.44246    
     5.30800      185.97068    
     5.32000      194.04480    
     5.33200      202.73370    
     5.34400      212.11928    
     5.35600      222.29932    
     5.36800      233.39096    
     5.38000      245.53466    
     5.39200      258.89893    
     5.40400      273.68550    
     5.41600      290.13511    
     5.42800      308.53364    
     5.44000      329.21835    
     5.45200      352.58392    
     5.46400      379.08791    
     5.47600      409.25499    
     5.48800      443.67947    
     5.50000      483.02545    
     5.51200      528.02398    
     5.52400      579.46666    
     5.53600      638.19544    
     5.54800      705.08828    
     5.56000      781.04100    
     5.57200      866.94573    
     5.58400      963.66696    
     5.59600      1072.0163    
     5.60800      1192.7276    
     5.62000      1326.4338    
     5.63200      1473.6482    
     5.64400      1634.7497    
     5.65600      1809.9758    
     5.66800      1999.4214    
     5.68000      2203.0451    
     5.69200      2420.6818    
     5.70400      2652.0588    
     5.71600      2896.8160    
     5.72800      3154.5248    
     5.74000      3424.7056    
     5.75200      3706.8403    
     5.76400      4000.3788    
     5.77600      4304.7379    
     5.78800      4619.2940    
     5.80000      4943.3695    
     5.81200      5276.2152    
     5.82400      5616.9926    
     5.83600      5964.7570    
     5.84800      6318.4464    
     5.86000      6676.8774    
     5.87200      7038.7501    
     5.88400      7402.6627    
     5.89600      7767.1344    
     5.90800      8130.6363    
     5.92000      8491.6248    
     5.93200      8848.5776    
     5.94400      9200.0254    
     5.95600      9544.5795    
     5.96800      9880.9495    
     5.98000      10207.954    
     5.99200      10524.518    
     6.00400      10829.667    
     6.01600      11122.512    
     6.02800      11402.231    
     6.04000      11668.051    
     6.05200      11919.235    
     6.06400      12155.070    
     6.07600      12374.865    
     6.08800      12577.959    
     6.10000      12763.726    
     6.11200      12931.596    
     6.12400      13081.074    
     6.13600      13211.755    
     6.14800      13323.343    
     6.16000      13415.662    
     6.17200      13488.661    
     6.18400      13542.413    
     6.19600      13577.107    
     6.20800      13593.034    
     6.22000      13590.571    
     6.23200      13570.161    
     6.24400      13532.298    
     6.25600      13477.507    
     6.26800      13406.338    
     6.28000      13319.355    
     6.29200      13217.137    
     6.30400      13100.273    
     6.31600      12969.376    
     6.32800      12825.077    
     6.34000      12668.039    
     6.35200      12498.958    
     6.36400      12318.562    
     6.37600      12127.614    
     6.38800      11926.904    
     6.40000      11717.240    
     6.41200      11499.445    
     6.42400      11274.341    
     6.43600      11042.744    
     6.44800      10805.449    
     6.46000      10563.228    
     6.47200      10316.825    
     6.48400      10066.949    
     6.49600      9814.2777    
     6.50800      9559.4575    
     6.52000      9303.1053    
     6.53200      9045.8115    
     6.54400      8788.1429    
     6.55600      8530.6440    
     6.56800      8273.8383    
     6.58000      8018.2282    
     6.59200      7764.2937    
     6.60400      7512.4905    
     6.61600      7263.2477    
     6.62800      7016.9653    
     6.64000      6774.0126    
     6.65200      6534.7260    
     6.66400      6299.4092    
     6.67600      6068.3325    
     6.68800      5841.7346    
     6.70000      5619.8237    
     6.71200      5402.7798    
     6.72400      5190.7570    
     6.73600      4983.8858    
     6.74800      4782.2752    
     6.76000      4586.0146    
     6.77200      4395.1750    
     6.78400      4209.8100    
     6.79600      4029.9568    
     6.80800      3855.6365    
     6.82000      3686.8543    
     6.83200      3523.6003    
     6.84400      3365.8497    
     6.85600      3213.5632    
     6.86800      3066.6887    
     6.88000      2925.1614    
     6.89200      2788.9056    
     6.90400      2657.8358    
     6.91600      2531.8579    
     6.92800      2410.8709    
     6.94000      2294.7675    
     6.95200      2183.4356    
     6.96400      2076.7591    
     6.97600      1974.6187    
     6.98800      1876.8922    
     7.00000      1783.4555    
     7.01200      1694.1825    
     7.02400      1608.9461    
     7.03600      1527.6178    
     7.04800      1450.0689    
     7.06000      1376.1702    
     7.07200      1305.7928    
     7.08400      1238.8082    
     7.09600      1175.0891    
     7.10800      1114.5096    
     7.12000      1056.9455    
     7.13200      1002.2747    
     7.14400      950.37772    
     7.15600      901.13739    
     7.16800      854.43959    
     7.18000      810.17306    
     7.19200      768.22957    
     7.20400      728.50399    
     7.21600      690.89430    
     7.22800      655.30160    
     7.24000      621.63017    
     7.25200      589.78742    
     7.26400      559.68392    
     7.27600      531.23340    
     7.28800      504.35276    
     7.30000      478.96206    
     7.31200      454.98448    
     7.32400      432.34635    
     7.33600      410.97706    
     7.34800      390.80903    
     7.36000      371.77768    
     7.37200      353.82133    
     7.38400      336.88110    
     7.39600      320.90089    
     7.40800      305.82723    
     7.42000      291.60925    
     7.43200      278.19852    
     7.44400      265.54902    
     7.45600      253.61704    
     7.46800      242.36108    
     7.48000      231.74178    
     7.49200      221.72183    
     7.50400      212.26590    
     7.51600      203.34057    
     7.52800      194.91424    
     7.54000      186.95702    
     7.55200      179.44073    
     7.56400      172.33875    
     7.57600      165.62599    
     7.58800      159.27879    
     7.60000      153.27487    
     7.61200      147.59324    
     7.62400      142.21414    
     7.63600      137.11899    
     7.64800      132.29032    
     7.66000      127.71168    
     7.67200      123.36765    
     7.68400      119.24372    
     7.69600      115.32629    
     7.70800      111.60258    
     7.72000      108.06060    
     7.73200      104.68913    
     7.74400      101.47763    
     7.75600      98.416237    
     7.76800      95.495709    
     7.78000      92.707389    
     7.79200      90.043171    
     7.80400      87.495467    
     7.81600      85.057175    
     7.82800      82.721649    
     7.84000      80.482668    
     7.85200      78.334414    
     7.86400      76.271442    
     7.87600      74.288661    
     7.88800      72.381307    
     7.90000      70.544925    
     7.91200      68.775348    
     7.92400      67.068678    
     7.93600      65.421269    
     7.94800      63.829712    
     7.96000      62.290817    
     7.97200      60.801598    
     7.98400      59.359262    
     7.99600      57.961195    
     8.00800      56.604950    
     8.02000      55.288234    
     8.03200      54.008899    
     8.04400      52.764935    
     8.05600      51.554454    
     8.06800      50.375689    
     8.08000      49.226981    
     8.09200      48.106771    
     8.10400      47.013598    
     8.11600      45.946089    
     8.12800      44.902953    
     8.14000      43.882975    
     8.15200      42.885012    
     8.16400      41.907988    
     8.17600      40.950890    
     8.18800      40.012762    
     8.20000      39.092700    
     8.21200      38.189852    
     8.22400      37.303414    
     8.23600      36.432622    
     8.24800      35.576756    
     8.26000      34.735132    
     8.27200      33.907101    
     8.28400      33.092047    
     8.29600      32.289386    
     8.30800      31.498560    
     8.32000      30.719041    
     8.33200      29.950322    
     8.34400      29.191922    
     8.35600      28.443380    
     8.36800      27.704257    
     8.38000      26.974130    
     8.39200      26.252596    
     8.40400      25.539269    
     8.41600      24.833775    
     8.42800      24.135756    
     8.44000      23.444870    
     8.45200      22.760783    
     8.46400      22.083177    
     8.47600      21.411740    
     8.48800      20.746175    
     8.50000      20.086193    
     8.51200      19.431512    
     8.52400      18.781860    
     8.53600      18.136974    
     8.54800      17.496595    
     8.56000      16.860473    
     8.57200      16.228366    
     8.58400      15.600033    
     8.59600      14.975244    
     8.60800      14.353769    
     8.62000      13.735388    
     8.63200      13.119881    
     8.64400      12.507034    
     8.65600      11.896636    
     8.66800      11.288482    
     8.68000      10.682368    
     8.69200      10.078092    
     8.70400      9.4754570    
     8.71600      8.8742677    
     8.72800      8.2743309    
     8.74000      7.6754555    
     8.75200      7.0774522    
     8.76400      6.4801335    
     8.77600      5.8833131    
     8.78800      5.2868061    
     8.80000      4.6904287    
     8.81200      4.0939977    
     8.82400      3.4973308    
     8.83600      2.9002463    
     8.84800      2.3025628    
     8.86000      1.7040988    
     8.87200      1.1046733    
     8.88400     0.50410484    
     8.89600    -0.97788231E-01
     8.90800    -0.70118801    
     8.92000     -1.3062772    
     8.93200     -1.9132393    
     8.94400     -2.5222587    
     8.95600     -3.1335209    
     8.96800     -3.7472126    
     8.98000     -4.3635217    
     8.99200     -4.9826381    
     9.00400     -5.6047530    
