     4.00000    -0.12439364E-01
     4.01200    -0.11623317E-01
     4.02400    -0.10805954E-01
     4.03600    -0.99870340E-02
     4.04800    -0.91663157E-02
     4.06000    -0.83435582E-02
     4.07200    -0.75185202E-02
     4.08400    -0.66909604E-02
     4.09600    -0.58606367E-02
     4.10800    -0.50273062E-02
     4.12000    -0.41907251E-02
     4.13200    -0.33506484E-02
     4.14400    -0.25068297E-02
     4.15600    -0.16590209E-02
     4.16800    -0.80697223E-03
     4.18000     0.49568299E-04
     4.19200     0.91085479E-03
     4.20400     0.17771438E-02
     4.21600     0.26486946E-02
     4.22800     0.35257693E-02
     4.24000     0.44086330E-02
     4.25200     0.52975541E-02
     4.26400     0.61928048E-02
     4.27600     0.70946606E-02
     4.28800     0.80034013E-02
     4.30000     0.89193107E-02
     4.31200     0.98426770E-02
     4.32400     0.10773793E-01
     4.33600     0.11712957E-01
     4.34800     0.12660472E-01
     4.36000     0.13616646E-01
     4.37200     0.14581793E-01
     4.38400     0.15556233E-01
     4.39600     0.16540293E-01
     4.40800     0.17534305E-01
     4.42000     0.18538609E-01
     4.43200     0.19553551E-01
     4.44400     0.20579486E-01
     4.45600     0.21616775E-01
     4.46800     0.22665788E-01
     4.48000     0.23726903E-01
     4.49200     0.24800508E-01
     4.50400     0.25886998E-01
     4.51600     0.26986780E-01
     4.52800     0.28100269E-01
     4.54000     0.29227891E-01
     4.55200     0.30370082E-01
     4.56400     0.31527291E-01
     4.57600     0.32699978E-01
     4.58800     0.33888613E-01
     4.60000     0.35093682E-01
     4.61200     0.36315682E-01
     4.62400     0.37555125E-01
     4.63600     0.38812535E-01
     4.64800     0.40088454E-01
     4.66000     0.41383436E-01
     4.67200     0.42698056E-01
     4.68400     0.44032900E-01
     4.69600     0.45388576E-01
     4.70800     0.46765708E-01
     4.72000     0.48164940E-01
     4.73200     0.49586934E-01
     4.74400     0.51032375E-01
     4.75600     0.52501968E-01
     4.76800     0.53996442E-01
     4.78000     0.55516546E-01
     4.79200     0.57063057E-01
     4.80400     0.58636776E-01
     4.81600     0.60238529E-01
     4.82800     0.61869173E-01
     4.84000     0.63529591E-01
     4.85200     0.65220698E-01
     4.86400     0.66943439E-01
     4.87600     0.68698794E-01
     4.88800     0.70487774E-01
     4.90000     0.72311430E-01
     4.91200     0.74170848E-01
     4.92400     0.76067155E-01
     4.93600     0.78001517E-01
     4.94800     0.79975146E-01
     4.96000     0.81989297E-01
     4.97200     0.84045272E-01
     4.98400     0.86144426E-01
     4.99600     0.88288161E-01
     5.00800     0.90477938E-01
     5.02000     0.92715273E-01
     5.03200     0.95001741E-01
     5.04400     0.97338983E-01
     5.05600     0.99728704E-01
     5.06800     0.10217268    
     5.08000     0.10467275    
     5.09200     0.10723086    
     5.10400     0.10984900    
     5.11600     0.11252926    
     5.12800     0.11527383    
     5.14000     0.11808497    
     5.15200     0.12096508    
     5.16400     0.12391662    
     5.17600     0.12694220    
     5.18800     0.13004451    
     5.20000     0.13322639    
     5.21200     0.13649081    
     5.22400     0.13984087    
     5.23600     0.14327982    
     5.24800     0.14681106    
     5.26000     0.15043816    
     5.27200     0.15416487    
     5.28400     0.15799512    
     5.29600     0.16193303    
     5.30800     0.16598295    
     5.32000     0.17014943    
     5.33200     0.17443727    
     5.34400     0.17885151    
     5.35600     0.18339749    
     5.36800     0.18808081    
     5.38000     0.19290737    
     5.39200     0.19788343    
     5.40400     0.20301557    
     5.41600     0.20831077    
     5.42800     0.21377641    
     5.44000     0.21942028    
     5.45200     0.22525066    
     5.46400     0.23127633    
     5.47600     0.23750659    
     5.48800     0.24395135    
     5.50000     0.25062111    
     5.51200     0.25752707    
     5.52400     0.26468117    
     5.53600     0.27209613    
     5.54800     0.27978554    
     5.56000     0.28776392    
     5.57200     0.29604681    
     5.58400     0.30465088    
     5.59600     0.31359400    
     5.60800     0.32289536    
     5.62000     0.33257563    
     5.63200     0.34265707    
     5.64400     0.35316370    
     5.65600     0.36412150    
     5.66800     0.37555858    
     5.68000     0.38750547    
     5.69200     0.39999532    
     5.70400     0.41306426    
     5.71600     0.42675175    
     5.72800     0.44110094    
     5.74000     0.45615920    
     5.75200     0.47197867    
     5.76400     0.48861685    
     5.77600     0.50613749    
     5.78800     0.52461139    
     5.80000     0.54411760    
     5.81200     0.56474476    
     5.82400     0.58659273    
     5.83600     0.60977461    
     5.84800     0.63441934    
     5.86000     0.66067474    
     5.87200     0.68871156    
     5.88400     0.71872831    
     5.89600     0.75095757    
     5.90800     0.78567371    
     5.92000     0.82320266    
     5.93200     0.86393395    
     5.94400     0.90833564    
     5.95600     0.95697236    
     5.96800      1.0105271    
     5.98000      1.0698270    
     5.99200      1.1358728    
     6.00400      1.2098727    
     6.01600      1.2932789    
     6.02800      1.3878268    
     6.04000      1.4955735    
     6.05200      1.6189349    
     6.06400      1.7607163    
     6.07600      1.9241327    
     6.08800      2.1128152    
     6.10000      2.3307957    
     6.11200      2.5824680    
     6.12400      2.8725180    
     6.13600      3.2058223    
     6.14800      3.5873125    
     6.16000      4.0218088    
     6.17200      4.5138268    
     6.18400      5.0673672    
     6.19600      5.6857013    
     6.20800      6.3711674    
     6.22000      7.1249946    
     6.23200      7.9471738    
     6.24400      8.8363902    
     6.25600      9.7900297    
     6.26800      10.804267    
     6.28000      11.874230    
     6.29200      12.994242    
     6.30400      14.158108    
     6.31600      15.359430    
     6.32800      16.591929    
     6.34000      17.849719    
     6.35200      19.127530    
     6.36400      20.420831    
     6.37600      21.725858    
     6.38800      23.039529    
     6.40000      24.359266    
     6.41200      25.682731    
     6.42400      27.007529    
     6.43600      28.330898    
     6.44800      29.649431    
     6.46000      30.958878    
     6.47200      32.254046    
     6.48400      33.528815    
     6.49600      34.776284    
     6.50800      35.989016    
     6.52000      37.159381    
     6.53200      38.279930    
     6.54400      39.343785    
     6.55600      40.344979    
     6.56800      41.278725    
     6.58000      42.141569    
     6.59200      42.931427    
     6.60400      43.647493    
     6.61600      44.290045    
     6.62800      44.860162    
     6.64000      45.359408    
     6.65200      45.789502    
     6.66400      46.152032    
     6.67600      46.448237    
     6.68800      46.678874    
     6.70000      46.844197    
     6.71200      46.944024    
     6.72400      46.977897    
     6.73600      46.945288    
     6.74800      46.845836    
     6.76000      46.679576    
     6.77200      46.447129    
     6.78400      46.149829    
     6.79600      45.789782    
     6.80800      45.369835    
     6.82000      44.893480    
     6.83200      44.364700    
     6.84400      43.787776    
     6.85600      43.167081    
     6.86800      42.506893    
     6.88000      41.811238    
     6.89200      41.083774    
     6.90400      40.327746    
     6.91600      39.545976    
     6.92800      38.740925    
     6.94000      37.914769    
     6.95200      37.069514    
     6.96400      36.207102    
     6.97600      35.329511    
     6.98800      34.438833    
     7.00000      33.537312    
     7.01200      32.627361    
     7.02400      31.711525    
     7.03600      30.792439    
     7.04800      29.872754    
     7.06000      28.955058    
     7.07200      28.041800    
     7.08400      27.135229    
     7.09600      26.237345    
     7.10800      25.349879    
     7.12000      24.474287    
     7.13200      23.611772    
     7.14400      22.763319    
     7.15600      21.929736    
     7.16800      21.111701    
     7.18000      20.309811    
     7.19200      19.524611    
     7.20400      18.756628    
     7.21600      18.006376    
     7.22800      17.274365    
     7.24000      16.561087    
     7.25200      15.867003    
     7.26400      15.192521    
     7.27600      14.537981    
     7.28800      13.903634    
     7.30000      13.289630    
     7.31200      12.696017    
     7.32400      12.122740    
     7.33600      11.569649    
     7.34800      11.036511    
     7.36000      10.523029    
     7.37200      10.028855    
     7.38400      9.5536074    
     7.39600      9.0968865    
     7.40800      8.6582833    
     7.42000      8.2373874    
     7.43200      7.8337902    
     7.44400      7.4470854    
     7.45600      7.0768665    
     7.46800      6.7227237    
     7.48000      6.3842399    
     7.49200      6.0609872    
     7.50400      5.7525246    
     7.51600      5.4583974    
     7.52800      5.1781376    
     7.54000      4.9112663    
     7.55200      4.6572974    
     7.56400      4.4157414    
     7.57600      4.1861102    
     7.58800      3.9679209    
     7.60000      3.7606999    
     7.61200      3.5639855    
     7.62400      3.3773297    
     7.63600      3.2002996    
     7.64800      3.0324768    
     7.66000      2.8734578    
     7.67200      2.7228521    
     7.68400      2.5802818    
     7.69600      2.4453803    
     7.70800      2.3177915    
     7.72000      2.1971691    
     7.73200      2.0831762    
     7.74400      1.9754860    
     7.75600      1.8737813    
     7.76800      1.7777557    
     7.78000      1.6871134    
     7.79200      1.6015705    
     7.80400      1.5208549    
     7.81600      1.4447064    
     7.82800      1.3728773    
     7.84000      1.3051316    
     7.85200      1.2412451    
     7.86400      1.1810047    
     7.87600      1.1242081    
     7.88800      1.0706628    
     7.90000      1.0201858    
     7.91200     0.97260337    
     7.92400     0.92774979    
     7.93600     0.88546763    
     7.94800     0.84560718    
     7.96000     0.80802616    
     7.97200     0.77258957    
     7.98400     0.73916944    
     7.99600     0.70764468    
     8.00800     0.67790084    
     8.02000     0.64982994    
     8.03200     0.62333023    
     8.04400     0.59830587    
     8.05600     0.57466671    
     8.06800     0.55232797    
     8.08000     0.53120992    
     8.09200     0.51123763    
     8.10400     0.49234061    
     8.11600     0.47445259    
     8.12800     0.45751127    
     8.14000     0.44145803    
     8.15200     0.42623779    
     8.16400     0.41179879    
     8.17600     0.39809241    
     8.18800     0.38507301    
     8.20000     0.37269778    
     8.21200     0.36092660    
     8.22400     0.34972188    
     8.23600     0.33904844    
     8.24800     0.32887337    
     8.26000     0.31916587    
     8.27200     0.30989716    
     8.28400     0.30104029    
     8.29600     0.29257011    
     8.30800     0.28446306    
     8.32000     0.27669712    
     8.33200     0.26925170    
     8.34400     0.26210753    
     8.35600     0.25524658    
     8.36800     0.24865198    
     8.38000     0.24230796    
     8.39200     0.23619977    
     8.40400     0.23031360    
     8.41600     0.22463655    
     8.42800     0.21915656    
     8.44000     0.21386233    
     8.45200     0.20874333    
     8.46400     0.20378968    
     8.47600     0.19899217    
     8.48800     0.19434215    
     8.50000     0.18983155    
     8.51200     0.18545281    
     8.52400     0.18119884    
     8.53600     0.17706300    
     8.54800     0.17303907    
     8.56000     0.16912121    
     8.57200     0.16530393    
     8.58400     0.16158210    
     8.59600     0.15795089    
     8.60800     0.15440576    
     8.62000     0.15094243    
     8.63200     0.14755689    
     8.64400     0.14424537    
     8.65600     0.14100431    
     8.66800     0.13783035    
     8.68000     0.13472033    
     8.69200     0.13167126    
     8.70400     0.12868033    
     8.71600     0.12574487    
     8.72800     0.12286236    
     8.74000     0.12003042    
     8.75200     0.11724677    
     8.76400     0.11450927    
     8.77600     0.11181588    
     8.78800     0.10916466    
     8.80000     0.10655377    
     8.81200     0.10398146    
     8.82400     0.10144604    
     8.83600     0.98945918E-01
     8.84800     0.96479574E-01
     8.86000     0.94045545E-01
     8.87200     0.91642435E-01
     8.88400     0.89268906E-01
     8.89600     0.86923675E-01
     8.90800     0.84605510E-01
     8.92000     0.82313226E-01
     8.93200     0.80045683E-01
     8.94400     0.77801784E-01
     8.95600     0.75580470E-01
     8.96800     0.73380718E-01
     8.98000     0.71201541E-01
     8.99200     0.69041982E-01
     9.00400     0.66901115E-01
