     4.00000      119.69884     125.871
     4.01200      123.87004     130.51
     4.02400      128.25045     135.363
     4.03600      132.85542     140.446
     4.04800      137.70189     145.775
     4.06000      142.80860     151.37
     4.07200      148.19634     157.251
     4.08400      153.88830     163.442
     4.09600      159.91043     169.969
     4.10800      166.29190     176.862
     4.12000      173.06570     184.153
     4.13200      180.26933     191.88
     4.14400      187.94569     200.086
     4.15600      196.14417     208.822
     4.16800      204.92201     218.144
     4.18000      214.34606     228.119
     4.19200      224.49492     238.827
     4.20400      235.46160     250.361
     4.21600      247.35693     262.831
     4.22800      260.31361     276.371
     4.24000      274.49132     291.14
     4.25200      290.08271     307.332
     4.26400      307.32066     325.18
     4.27600      326.48663     344.965
     4.28800      347.92029     367.028
     4.30000      372.03016     391.777
     4.31200      399.30509     419.701
     4.32400      430.32613     451.382
     4.33600      465.77825     487.505
     4.34800      506.46090     528.87
     4.36000      553.29654     576.4
     4.37200      607.33572     631.145
     4.38400      669.75748     694.286
     4.39600      741.86348     767.123
     4.40800      825.06465     851.069
     4.42000      920.85919     947.623
     4.43200      1030.8014     1058.34
     4.44400      1156.4608     1184.78
     4.45600      1299.3736     1328.5
     4.46800      1460.9858     1490.93
     4.48000      1642.5935     1673.37
     4.49200      1845.2803     1876.91
     4.50400      2069.8595     2102.36
     4.51600      2316.8223     2350.21
     4.52800      2586.2978     2620.59
     4.54000      2878.0288     2913.24
     4.55200      3191.3655     3227.52
     4.56400      3525.2790     3562.4
     4.57600      3878.3933     3916.5
     4.58800      4249.0360     4288.14
     4.60000      4635.3006     4675.44
     4.61200      5035.1183     5076.31
     4.62400      5446.3302     5488.6
     4.63600      5866.7561     5910.12
     4.64800      6294.2515     6338.75
     4.66000      6726.7495     6772.4
     4.67200      7162.2845     7209.11
     4.68400      7598.9967     7647.04
     4.69600      8035.1185     8084.4
     4.70800      8468.9480     8519.5
     4.72000      8898.8137     8950.67
     4.73200      9323.0380     9376.23
     4.74400      9739.9046     9794.47
     4.75600      10147.637     10203.6
     4.76800      10544.392     10601.8
     4.78000      10928.269     10987.2
     4.79200      11297.341     11357.8
     4.80400      11649.690     11711.7
     4.81600      11983.465     12047.1
     4.82800      12296.933     12362.2
     4.84000      12588.539     12655.5
     4.85200      12856.945     12925.7
     4.86400      13101.071     13171.6
     4.87600      13320.107     13392.5
     4.88800      13513.518     13587.9
     4.90000      13681.025     13757.3
     4.91200      13822.577     13900.9
     4.92400      13938.314     14018.8
     4.93600      14028.525     14111.2
     4.94800      14093.607     14178.5
     4.96000      14134.027     14221.3
     4.97200      14150.299     14240
     4.98400      14142.963     14235.2
     4.99600      14112.586     14207.4
     5.00800      14059.759     14157.3
     5.02000      13985.114     14085.4
     5.03200      13889.337     13992.6
     5.04400      13773.184     13879.4
     5.05600      13637.493     13746.9
     5.06800      13483.195     13595.9
     5.08000      13311.312     13427.4
     5.09200      13122.949     13242.6
     5.10400      12919.285     13042.7
     5.11600      12701.553     12828.8
     5.12800      12471.016     12602.3
     5.14000      12228.945     12364.5
     5.15200      11976.597     12116.5
     5.16400      11715.200     11859.7
     5.17600      11445.932     11595.3
     5.18800      11169.919     11324.3
     5.20000      10888.227     11047.9
     5.21200      10601.864     10767
     5.22400      10311.783     10482.7
     5.23600      10018.889     10195.8
     5.24800      9724.0458     9907.36
     5.26000      9428.0788     9618.08
     5.27200      9131.7824     9328.85
     5.28400      8835.9203     9040.46
     5.29600      8541.2257     8753.68
     5.30800      8248.3989     8469.27
     5.32000      7958.1037     8187.96
     5.33200      7670.9628     7910.43
     5.34400      7387.5531     7637.35
     5.35600      7108.4017     7369.34
     5.36800      6833.9834     7106.99
     5.38000      6564.7191     6850.87
     5.39200      6300.9761     6601.52
     5.40400      6043.0700     6359.45
     5.41600      5791.2680     6125.17
     5.42800      5545.7923     5899.19
     5.44000      5306.8249     5682.03
     5.45200      5074.5118     5474.23
     5.46400      4848.9670     5276.37
     5.47600      4630.2760     5089.04
     5.48800      4418.4988     4912.92
     5.50000      4213.6715     4748.71
     5.51200      4015.8083     4597.15
     5.52400      3824.9022     4459.03
     5.53600      3640.9257     4335.18
     5.54800      3463.8316     4226.42
     5.56000      3293.5537     4133.59
     5.57200      3130.0076     4057.51
     5.58400      2973.0920     3998.94
     5.59600      2822.6902     3958.59
     5.60800      2678.6716     3937.06
     5.62000      2540.8940     3934.84
     5.63200      2409.2050     3952.31
     5.64400      2283.4444     3989.69
     5.65600      2163.4458     4047.06
     5.66800      2049.0383     4124.34
     5.68000      1940.0478     4221.34
     5.69200      1836.2983     4337.72
     5.70400      1737.6128     4473.03
     5.71600      1643.8137     4626.77
     5.72800      1554.7242     4798.32
     5.74000      1470.1680     4987.06
     5.75200      1389.9698     5192.3
     5.76400      1313.9561     5413.34
     5.77600      1241.9551     5649.46
     5.78800      1173.7976     5899.88
     5.80000      1109.3166     6163.79
     5.81200      1048.3485     6440.31
     5.82400      990.73324     6728.48
     5.83600      936.31430     7027.26
     5.84800      884.93952     7335.49
     5.86000      836.46116     7651.91
     5.87200      790.73614     7975.15
     5.88400      747.62621     8303.79
     5.89600      706.99803     8636.34
     5.90800      668.72323     8971.28
     5.92000      632.67840     9307.13
     5.93200      598.74502     9642.46
     5.94400      566.80944     9975.94
     5.95600      536.76271     10306.4
     5.96800      508.50058     10632.7
     5.98000      481.92334     10954
     5.99200      456.93574     11269.6
     6.00400      433.44687     11578.9
     6.01600      411.37012     11881.4
     6.02800      390.62300     12176.8
     6.04000      371.12711     12464.9
     6.05200      352.80798     12745.4
     6.06400      335.59498     13018.1
     6.07600      319.42121     13282.9
     6.08800      304.22333     13539.5
     6.10000      289.94149     13787.6
     6.11200      276.51910     14027
     6.12400      263.90280     14257.4
     6.13600      252.04222     14478.3
     6.14800      240.88988     14689.5
     6.16000      230.40109     14890.4
     6.17200      220.53373     15080.8
     6.18400      211.24820     15260.2
     6.19600      202.50725     15428.3
     6.20800      194.27588     15584.8
     6.22000      186.52122     15729.5
     6.23200      179.21243     15862.3
     6.24400      172.32056     15983.1
     6.25600      165.81851     16092
     6.26800      159.68087     16189
     6.28000      153.88387     16274.4
     6.29200      148.40525     16348.5
     6.30400      143.22420     16411.6
     6.31600      138.32128     16464
     6.32800      133.67830     16506.1
     6.34000      129.27830     16538
     6.35200      125.10542     16560
     6.36400      121.14486     16572.2
     6.37600      117.38281     16574.6
     6.38800      113.80639     16567.1
     6.40000      110.40357     16549.6
     6.41200      107.16316     16521.9
     6.42400      104.07470     16483.7
     6.43600      101.12846     16434.8
     6.44800      98.315352     16375
     6.46000      95.626927     16304.4
     6.47200      93.055305     16222.9
     6.48400      90.593148     16130.8
     6.49600      88.233621     16028.3
     6.50800      85.970358     15915.9
     6.52000      83.797430     15794
     6.53200      81.709314     15663.2
     6.54400      79.700866     15524
     6.55600      77.767294     15376.9
     6.56800      75.904133     15222.4
     6.58000      74.107224     15060.6
     6.59200      72.372687     14892
     6.60400      70.696909     14716.7
     6.61600      69.076518     14534.6
     6.62800      67.508370     14346
     6.64000      65.989532     14150.7
     6.65200      64.517265     13949
     6.66400      63.089013     13740.8
     6.67600      61.702388     13526.4
     6.68800      60.355159     13306.2
     6.70000      59.045240     13080.5
     6.71200      57.770680     12849.7
     6.72400      56.529652     12614.6
     6.73600      55.320446     12375.6
     6.74800      54.141459     12133.5
     6.76000      52.991189     11888.7
     6.77200      51.868226     11641.8
     6.78400      50.771246     11393.2
     6.79600      49.699005     11143.5
     6.80800      48.650333     10892.8
     6.82000      47.624128     10641.5
     6.83200      46.619354     10389.7
     6.84400      45.635033     10137.7
     6.85600      44.670242     9885.6
     6.86800      43.724109     9633.6
     6.88000      42.795813     9381.96
     6.89200      41.884572     9130.95
     6.90400      40.989649     8880.89
     6.91600      40.110345     8632.13
     6.92800      39.245996     8385.05
     6.94000      38.395971     8140.04
     6.95200      37.559671     7897.47
     6.96400      36.736525     7657.7
     6.97600      35.925990     7421.04
     6.98800      35.127547     7187.77
     7.00000      34.340700     6958.09
     7.01200      33.564978     6732.19
     7.02400      32.799928     6510.18
     7.03600      32.045115     6292.15
     7.04800      31.300124     6078.17
     7.06000      30.564558     5868.3
     7.07200      29.838031     5662.6
     7.08400      29.120177     5461.11
     7.09600      28.410640     5263.91
     7.10800      27.709079     5071.08
     7.12000      27.015163     4882.71
     7.13200      26.328575     4698.88
     7.14400      25.649006     4519.68
     7.15600      24.976160     4345.19
     7.16800      24.309746     4175.47
     7.18000      23.649487     4010.56
     7.19200      22.995110     3850.47
     7.20400      22.346352     3695.21
     7.21600      21.702957     3544.74
     7.22800      21.064675     3399.01
     7.24000      20.431263     3257.96
     7.25200      19.802485     3121.52
     7.26400      19.178110     2989.6
     7.27600      18.557910     2862.12
     7.28800      17.941667     2739
     7.30000      17.329163     2620.16
     7.31200      16.720186     2505.53
     7.32400      16.114530     2395.04
     7.33600      15.511990     2288.62
     7.34800      14.912367     2186.19
     7.36000      14.315463     2087.69
     7.37200      13.721086     1993.03
     7.38400      13.129043     1902.13
     7.39600      12.539149     1814.9
     7.40800      11.951216     1731.25
     7.42000      11.365062     1651.07
     7.43200      10.780507     1574.25
     7.44400      10.197370     1500.7
     7.45600      9.6154756     1430.3
     7.46800      9.0346473     1362.94
     7.48000      8.4547110     1298.51
     7.49200      7.8754941     1236.92
     7.50400      7.2968249     1178.06
     7.51600      6.7185325     1121.83
     7.52800      6.1404472     1068.14
     7.54000      5.5623998     1016.91
     7.55200      4.9842216     968.039
     7.56400      4.4057445     921.445
     7.57600      3.8268006     877.041
     7.58800      3.2472220     834.744
     7.60000      2.6668410     794.468
     7.61200      2.0854898     756.132
     7.62400      1.5030001     719.653
     7.63600     0.91920350     684.95
     7.64800     0.33393085     651.943
     7.66000    -0.25298753     620.555
     7.67200    -0.84172211     590.712
     7.68400     -1.4324443     562.342
     7.69600     -2.0253265     535.375
     7.70800     -2.6205424     509.747
     7.72000     -3.2182669     485.392
     7.73200     -3.8186763     462.252
     7.74400     -4.4219486     440.268
     7.75600     -5.0282635     419.385
     7.76800     -5.6378024     399.55
     7.78000     -6.2507489     380.71
     7.79200     -6.8672887     362.818
     7.80400     -7.4876096     345.823
     7.81600     -8.1119020     329.682
     7.82800     -8.7403589     314.348
     7.84000     -9.3731761     299.78
     7.85200     -10.010552     285.936
     7.86400     -10.652688     272.777
     7.87600     -11.299790     260.266
     7.88800     -11.952065     248.367
     7.90000     -12.609726     237.047
     7.91200     -13.272988     226.273
     7.92400     -13.942070     216.016
     7.93600     -14.617197     206.245
     7.94800     -15.298596     196.935
     7.96000     -15.986500     188.059
     7.97200     -16.681146     179.593
     7.98400     -17.382776     171.512
     7.99600     -18.091637     163.796
     8.00800     -18.807983     156.423
     8.02000     -19.532072     149.372
     8.03200     -20.264168     142.624
     8.04400     -21.004541     136.162
     8.05600     -21.753468     129.968
     8.06800     -22.511234     124.025
     8.08000     -23.278127     118.319
     8.09200     -24.054447     112.835
     8.10400     -24.840498     107.558
     8.11600     -25.636594     102.477
     8.12800     -26.443056     97.5781
     8.14000     -27.260214     92.8507
     8.15200     -28.088407     88.2836
     8.16400     -28.927983     83.8666
     8.17600     -29.779301     79.5899
     8.18800     -30.642728     75.4442
     8.20000     -31.518643     71.4209
     8.21200     -32.407435     67.5118
     8.22400     -33.309507     63.709
     8.23600     -34.225270     60.0051
     8.24800     -35.155151     56.3932
     8.26000     -36.099588     52.8667
     8.27200     -37.059032     49.4192
     8.28400     -38.033951     46.0448
     8.29600     -39.024825     42.738
     8.30800     -40.032150     39.4933
     8.32000     -41.056439     36.3059
     8.33200     -42.098222     33.1708
     8.34400     -43.158044     30.0837
     8.35600     -44.236470     27.04
     8.36800     -45.334086     24.0358
     8.38000     -46.451495     21.0672
     8.39200     -47.589322     18.1303
     8.40400     -48.748213     15.2217
     8.41600     -49.928839     12.3378
     8.42800     -51.131893     9.47549
     8.44000     -52.358093     6.63147
     8.45200     -53.608185     3.80274
     8.46400     -54.882940     0.986364
     8.47600     -56.183158     -1.82051
     8.48800     -57.509672     -4.62062
     8.50000     -58.863342     -7.41664
     8.51200     -60.245065     -10.2112
     8.52400     -61.655771     -13.0068
     8.53600     -63.096425     -15.8059
     8.54800     -64.568033     -18.611
     8.56000     -66.071640     -21.4245
     8.57200     -67.608331     -24.2487
     8.58400     -69.179239     -27.0859
     8.59600     -70.785541     -29.9386
     8.60800     -72.428463     -32.809
     8.62000     -74.109285     -35.6994
     8.63200     -75.829338     -38.6121
     8.64400     -77.590013     -41.5494
     8.65600     -79.392759     -44.5137
     8.66800     -81.239090     -47.5074
     8.68000     -83.130587     -50.5328
     8.69200     -85.068902     -53.5923
     8.70400     -87.055760     -56.6884
     8.71600     -89.092969     -59.8235
     8.72800     -91.182416     -63.0003
     8.74000     -93.326079     -66.2214
     8.75200     -95.526030     -69.4894
     8.76400     -97.784439     -72.8071
     8.77600     -100.10358     -76.1774
     8.78800     -102.48585     -79.6031
     8.80000     -104.93374     -83.0873
     8.81200     -107.44989     -86.6332
     8.82400     -110.03706     -90.244
     8.83600     -112.69817     -93.923
     8.84800     -115.43627     -97.6739
     8.86000     -118.25459     -101.5
     8.87200     -121.15650     -105.406
     8.88400     -124.14561     -109.395
     8.89600     -127.22566     -113.471
     8.90800     -130.40066     -117.64
     8.92000     -133.67480     -121.905
     8.93200     -137.05253     -126.271
     8.94400     -140.53856     -130.743
     8.95600     -144.13788     -135.328
     8.96800     -147.85575     -140.03
     8.98000     -151.69779     -144.855
     8.99200     -155.66992     -149.81
     9.00400     -159.77848     -154.901
