125.871
130.51
135.363
140.446
145.775
151.37
157.251
163.442
169.969
176.862
184.153
191.88
200.086
208.822
218.144
228.119
238.827
250.361
262.831
276.371
291.14
307.332
325.18
344.965
367.028
391.777
419.701
451.382
487.505
528.87
576.4
631.145
694.286
767.123
851.069
947.623
1058.34
1184.78
1328.5
1490.93
1673.37
1876.91
2102.36
2350.21
2620.59
2913.24
3227.52
3562.4
3916.5
4288.14
4675.44
5076.31
5488.6
5910.12
6338.75
6772.4
7209.11
7647.04
8084.4
8519.5
8950.67
9376.23
9794.47
10203.6
10601.8
10987.2
11357.8
11711.7
12047.1
12362.2
12655.5
12925.7
13171.6
13392.5
13587.9
13757.3
13900.9
14018.8
14111.2
14178.5
14221.3
14240
14235.2
14207.4
14157.3
14085.4
13992.6
13879.4
13746.9
13595.9
13427.4
13242.6
13042.7
12828.8
12602.3
12364.5
12116.5
11859.7
11595.3
11324.3
11047.9
10767
10482.7
10195.8
9907.36
9618.08
9328.85
9040.46
8753.68
8469.27
8187.96
7910.43
7637.35
7369.34
7106.99
6850.87
6601.52
6359.45
6125.17
5899.19
5682.03
5474.23
5276.37
5089.04
4912.92
4748.71
4597.15
4459.03
4335.18
4226.42
4133.59
4057.51
3998.94
3958.59
3937.06
3934.84
3952.31
3989.69
4047.06
4124.34
4221.34
4337.72
4473.03
4626.77
4798.32
4987.06
5192.3
5413.34
5649.46
5899.88
6163.79
6440.31
6728.48
7027.26
7335.49
7651.91
7975.15
8303.79
8636.34
8971.28
9307.13
9642.46
9975.94
10306.4
10632.7
10954
11269.6
11578.9
11881.4
12176.8
12464.9
12745.4
13018.1
13282.9
13539.5
13787.6
14027
14257.4
14478.3
14689.5
14890.4
15080.8
15260.2
15428.3
15584.8
15729.5
15862.3
15983.1
16092
16189
16274.4
16348.5
16411.6
16464
16506.1
16538
16560
16572.2
16574.6
16567.1
16549.6
16521.9
16483.7
16434.8
16375
16304.4
16222.9
16130.8
16028.3
15915.9
15794
15663.2
15524
15376.9
15222.4
15060.6
14892
14716.7
14534.6
14346
14150.7
13949
13740.8
13526.4
13306.2
13080.5
12849.7
12614.6
12375.6
12133.5
11888.7
11641.8
11393.2
11143.5
10892.8
10641.5
10389.7
10137.7
9885.6
9633.6
9381.96
9130.95
8880.89
8632.13
8385.05
8140.04
7897.47
7657.7
7421.04
7187.77
6958.09
6732.19
6510.18
6292.15
6078.17
5868.3
5662.6
5461.11
5263.91
5071.08
4882.71
4698.88
4519.68
4345.19
4175.47
4010.56
3850.47
3695.21
3544.74
3399.01
3257.96
3121.52
2989.6
2862.12
2739
2620.16
2505.53
2395.04
2288.62
2186.19
2087.69
1993.03
1902.13
1814.9
1731.25
1651.07
1574.25
1500.7
1430.3
1362.94
1298.51
1236.92
1178.06
1121.83
1068.14
1016.91
968.039
921.445
877.041
834.744
794.468
756.132
719.653
684.95
651.943
620.555
590.712
562.342
535.375
509.747
485.392
462.252
440.268
419.385
399.55
380.71
362.818
345.823
329.682
314.348
299.78
285.936
272.777
260.266
248.367
237.047
226.273
216.016
206.245
196.935
188.059
179.593
171.512
163.796
156.423
149.372
142.624
136.162
129.968
124.025
118.319
112.835
107.558
102.477
97.5781
92.8507
88.2836
83.8666
79.5899
75.4442
71.4209
67.5118
63.709
60.0051
56.3932
52.8667
49.4192
46.0448
42.738
39.4933
36.3059
33.1708
30.0837
27.04
24.0358
21.0672
18.1303
15.2217
12.3378
9.47549
6.63147
3.80274
0.986364
-1.82051
-4.62062
-7.41664
-10.2112
-13.0068
-15.8059
-18.611
-21.4245
-24.2487
-27.0859
-29.9386
-32.809
-35.6994
-38.6121
-41.5494
-44.5137
-47.5074
-50.5328
-53.5923
-56.6884
-59.8235
-63.0003
-66.2214
-69.4894
-72.8071
-76.1774
-79.6031
-83.0873
-86.6332
-90.244
-93.923
-97.6739
-101.5
-105.406
-109.395
-113.471
-117.64
-121.905
-126.271
-130.743
-135.328
-140.03
-144.855
-149.81
-154.901
