  0.396440502690391       3.758291132766761E-004 -2.660293794945134E-002
   1.18932150807117      -1.252014882480416E-003  2.496843141759157E-002
   1.98220251345196       2.402403397281080E-003 -2.203464597631159E-002
   2.77508351883274      -3.760132058631713E-003  1.830766605338559E-002
   3.56796452421352       5.083263462555334E-003 -1.427232464757377E-002
   4.36084552959430      -6.087286392968268E-003  1.029240650929385E-002
   5.15372653497509       6.560278321106049E-003 -6.611077043410586E-003
   5.94660754035587      -6.411885240399387E-003  3.392080257373511E-003
   6.73948854573665       5.668675389761338E-003 -7.527286304773546E-004
   7.53236955111743      -4.445583252670171E-003 -1.224752803481334E-003
   8.32525055649822       2.913174644380179E-003  2.496267034645225E-003
   9.11813156187900      -1.268133973924381E-003 -3.062764729179687E-003
   9.91101256725978      -2.917599016532047E-004  2.974304563743475E-003
   10.7038935726406       1.588372093122073E-003 -2.328506286007068E-003
   11.4967745780213      -2.479623689087985E-003  1.263110257335358E-003
   12.2896555834021       2.871161313176749E-003  5.640381293860088E-005
   13.0825365887829      -2.722828613901550E-003 -1.452618648845915E-003
   13.8754175941637       2.049791369289572E-003  2.753645428105645E-003
   14.6682985995445      -9.187151098086685E-004 -3.810408486138539E-003
   15.4611796049253      -5.599754640492003E-004  4.511811384135248E-003
   16.2540606103060       2.242295720655318E-003 -4.795621918103231E-003
   17.0469416156868      -3.962150089938866E-003  4.652637391162740E-003
   17.8398226210676       5.544163858376062E-003 -4.122044486808218E-003
   18.6327036264484      -6.819867293383703E-003  3.278129415630021E-003
   19.4255846318292       7.649111378290231E-003 -2.212921908072395E-003
   20.2184656372100      -7.944154499395428E-003  1.022873328337264E-003
   21.0113466425907       7.687408631188185E-003  1.949569928883701E-004
   21.8042276479715      -6.933024391637201E-003 -1.340554825623710E-003
   22.5971086533523       5.790986801609877E-003  2.312091712731285E-003
   23.3899896587331      -4.402561816073425E-003 -3.016479687851959E-003
   24.1828706641139       2.917782376979366E-003  3.385933011100846E-003
   24.9757516694946      -1.479582240066865E-003 -3.392247156277541E-003
   25.7686326748754       2.131647180016356E-004  3.052952861865105E-003
   26.5615136802562       7.821987282373055E-004 -2.428499501686483E-003
   27.3543946856370      -1.440074132096736E-003  1.612712512317891E-003
   28.1472756910178       1.731881606954707E-003 -7.193967350443781E-004
   28.9401566963986      -1.668869656847179E-003 -1.325242173547620E-004
   29.7330377017793       1.300235444294543E-003  8.335026529978243E-004
   30.5259187071601      -7.072484263274733E-004 -1.296037297675433E-003
   31.3187997125409      -6.119444859366128E-006  1.464337152140479E-003
   32.1116807179217       7.250622029699241E-004 -1.320097446593466E-003
   32.9045617233025      -1.337004619585379E-003  8.838837480573633E-004
   33.6974427286833       1.744435678258961E-003 -2.120658968499326E-004
   34.4903237340640      -1.876126670894530E-003 -6.102792523214875E-004
   35.2832047394448       1.695531709333767E-003  1.479616771612119E-003
   36.0760857448256      -1.205438936291213E-003 -2.286091858183736E-003
   36.8689667502064       4.482465496251210E-004  2.926074395417321E-003
   37.6618477555872       4.984282129143322E-004 -3.313671004822282E-003
   38.4547287609680      -1.530647166675198E-003  3.390117766111545E-003
   39.2476097663487       2.530700784235937E-003 -3.130475147287462E-003
   40.0404907717295      -3.381592203060969E-003  2.547352309920282E-003
   40.8333717771103       3.981167496600762E-003 -1.691253853550163E-003
   41.6262527824911      -4.253832527856083E-003  6.468698733351130E-004
   42.4191337878719       4.158734953376069E-003  4.751293175397206E-004
   43.2120147932526      -3.694202390796695E-003 -1.550276737750458E-003
   44.0048957986334       2.898540288775725E-003  2.454857920562740E-003
   44.7977768040142      -1.847171649172170E-003 -3.080678344129414E-003
   45.5906578093950       6.460752885584168E-004  3.348060461794241E-003
   46.3835388147758       5.782008706331717E-004 -3.215591582090737E-003
   47.1764198201566      -1.691155569186928E-003  2.685675408865368E-003
   47.9693008255373       2.564319268525595E-003 -1.805397033775673E-003
   48.7621818309181      -3.089088803898487E-003  6.626338049578087E-004
   49.5550628362989       3.188862769374823E-003  6.222302936641541E-004
   50.3479438416797      -2.828100600991419E-003 -1.908214085520998E-003
   51.1408248470605       2.017260291311127E-003  3.048138947282642E-003
   51.9337058524412      -8.130221859406132E-004 -3.904124342992084E-003
   52.7265868578220      -6.862620795779547E-004  4.362650867648468E-003
   53.5194678632028       2.349397580917180E-003 -4.347655149388409E-003
   54.3123488685836      -4.024442841033214E-003  3.830213006435681E-003
   55.1052298739644       5.552719167526657E-003 -2.833531883877757E-003
   55.8981108793452      -6.783326816424823E-003  1.432244621492478E-003
   56.6909918847259       7.587069478415273E-003  2.544750956424615E-004
   57.4838728901067      -7.869156774369612E-003 -2.075478457231584E-003
   58.2767538954875       7.580189385995725E-003  3.864049004666456E-003
   59.0696349008683      -6.724348626598820E-003 -5.455262367393819E-003
   59.8625159062491       5.362811840648712E-003  6.701542761026725E-003
   60.6553969116299      -3.610346603046322E-003 -7.485071378427347E-003
   61.4482779170106       1.624481942112462E-003  7.727225541280040E-003
   62.2411589223914       4.111757675439171E-004 -7.395577787109977E-003
   63.0340399277722      -2.306519603530894E-003  6.508187130460747E-003
   63.8269209331530       3.884453579256914E-003 -5.134107568275711E-003
   64.6198019385338      -4.998198924193537E-003  3.389081678792738E-003
   65.4126829439146       5.545051437553267E-003 -1.426183335414427E-003
   66.2055639492953      -5.475705883707197E-003 -5.778573475472322E-004
   66.9984449546761       4.798530075655823E-003  2.439197028637461E-003
   67.7913259600569      -3.578461254780672E-003 -3.984482452190618E-003
   68.5842069654377       1.930596765665077E-003  5.067645623256433E-003
   69.3770879708185      -9.027865192587597E-006 -5.584176503599127E-003
   70.1699689761992      -2.008055714058307E-003  5.481471613436291E-003
   70.9628499815800       3.935552103996349E-003 -4.764285915701083E-003
   71.7557309869608      -5.599193921470388E-003  3.494810746264716E-003
   72.5486119923416       6.851989314254612E-003 -1.787394501223512E-003
   73.3414929977224      -7.587560122735488E-003 -2.016612021612645E-004
   74.1343740031032       7.748922996340868E-003  2.288503747783504E-003
   74.9272550084840      -7.331943017414965E-003 -4.279375878857856E-003
   75.7201360138647       6.383652335322621E-003  5.990195737368285E-003
   76.5130170192455      -4.996517291020019E-003 -7.266090049609385E-003
   77.3058980246263       3.299980536017150E-003  7.998096436670352E-003
   78.0987790300071      -1.449937251803546E-003 -8.134050086971975E-003
   78.8916600353879      -3.841285928093290E-004  7.681798051889936E-003
   79.6845410407687       2.034634684034399E-003 -6.705028925263645E-003
   80.4774220461494      -3.353020442180068E-003  5.313756316179161E-003
   81.2703030515302       4.225979545803091E-003 -3.651762202291840E-003
   82.0631840569110      -4.587872416040925E-003  1.882464827435482E-003
   82.8560650622918       4.427288630052576E-003 -1.739112597216896E-004
   83.6489460676726      -3.787131445596658E-003 -1.316457868007567E-003
   84.4418270730533       2.758709372762593E-003  2.456221973179423E-003
   85.2347080784341      -1.470940094683963E-003 -3.150195992698276E-003
   86.0275890838149       7.606987767344716E-005  3.349090125191353E-003
   86.8204700891957       1.266532801920034E-003 -3.053597060564803E-003
   87.6133510945765      -2.406877735070614E-003  2.313414251299618E-003
   88.4062320999573       3.219543833207157E-003 -1.221290473310123E-003
   89.1991131053380      -3.616113686887854E-003 -9.725902650037553E-005
   89.9919941107188       3.553695041018761E-003  1.497449433416853E-003
   90.7848751160996      -3.038767361852281E-003 -2.830458313023078E-003
   91.5777561214804       2.126037669894647E-003  3.958707729580082E-003
   92.3706371268612      -9.124207302696749E-004 -4.769491737175315E-003
   93.1635181322419      -4.733725359761701E-004  5.185463355921248E-003
   93.9563991376227       1.884827326005724E-003 -5.170994395008335E-003
   94.7492801430035      -3.173989266926905E-003  4.734149847950622E-003
   95.5421611483843       4.208418877894026E-003 -3.924722929978458E-003
   96.3350421537651      -4.886352088315630E-003  2.829050885387660E-003
   97.1279231591459       5.147577064571226E-003 -1.561995744165937E-003
   97.9208041645266      -4.978423744905385E-003  2.559914819297373E-004
   98.7136851699074       4.410870256813111E-003  9.527423301041039E-004
   99.5065661752882      -3.517050108199286E-003 -1.939635718871956E-003
   100.299447180669       2.400637806782118E-003  2.606537839583184E-003
   101.092328186050      -1.186046415170385E-003 -2.893305376717423E-003
   101.885209191431       5.979902973568671E-006  2.784491804110202E-003
   102.678090196811       1.011956339038678E-003 -2.310539560836252E-003
   103.470971202192      -1.758449991698267E-003  1.543742621076348E-003
   104.263852207573       2.154060310481855E-003 -5.897551577290150E-004
   105.056733212954      -2.157802515861566E-003 -4.242757824406472E-004
   105.849614218334       1.771679056886967E-003  1.363658372029938E-003
   106.642495223715      -1.040572525852720E-003 -2.100741793050851E-003
   107.435376229096       4.744253146399962E-005  2.528656771066572E-003
   108.228257234477       1.095715972855923E-003 -2.572832876583825E-003
   109.021138239858      -2.260233602221878E-003  2.199176004089692E-003
   109.814019245238       3.315140245034582E-003 -1.418187158147392E-003
   110.606900250619      -4.141936270059129E-003  2.847783070770980E-004
   111.399781256000       4.647919066083054E-003  1.106020335057695E-003
   112.192662261381      -4.776137987744361E-003 -2.627028544007259E-003
   112.985543266762       4.510309162577694E-003  4.130217196653418E-003
   113.778424272142      -3.873951242383351E-003 -5.461285447359177E-003
   114.571305277523       2.924713051713591E-003  6.477322075715972E-003
   115.364186282904      -1.746608648015761E-003 -7.066021038805932E-003
   116.157067288285       4.430248936853357E-004  7.162606108674891E-003
   116.949948293665       8.689746756785214E-004 -6.759379071602426E-003
   117.742829299046      -2.065553543740946E-003  5.904843739993389E-003
   118.535710304427       3.027086272210698E-003 -4.693842506997526E-003
   119.328591309808      -3.653019077746086E-003  3.253298386910943E-003
   120.121472315189       3.876944742180689E-003 -1.727617729200985E-003
   120.914353320569      -3.677503429167950E-003  2.651824204991731E-004
   121.707234325950       3.082592329651876E-003  9.944060879537688E-004
   122.500115331331      -2.166692500327823E-003 -1.932610903480823E-003
   123.292996336712       1.042491017825716E-003  2.463149332840447E-003
   124.085877342092       1.515949566787266E-004 -2.540824881400068E-003
   124.878758347473      -1.266357060113463E-003  2.166703619060606E-003
   125.671639352854       2.157592322473438E-003 -1.388733820639897E-003
   126.464520358235      -2.701185924257538E-003  2.974784015837624E-004
   127.257401363616       2.806011998248133E-003  9.827924054332205E-004
   128.050282368996      -2.423423374106789E-003 -2.306894191107626E-003
   128.843163374377       1.552505443255744E-003  3.524244357564262E-003
   129.636044379758      -2.408272345631986E-004 -4.495609591170065E-003
   130.428925385139      -1.418941280817693E-003  5.109281274285620E-003
   131.221806390520       3.295662511656743E-003 -5.294498892356033E-003
   132.014687395900      -5.228711114498328E-003  5.029554150335134E-003
   132.807568401281       7.039248514365926E-003 -4.342080340223484E-003
   133.600449406662      -8.545229028224185E-003  3.300538524036125E-003
   134.393330412043       9.582085541726220E-003 -1.999468441590569E-003
   135.186211417423      -1.002826117575109E-002  5.450391194134080E-004
   135.979092422804       9.828937483016061E-003  9.524229830957673E-004
   136.771973428185      -9.007711062244770E-003 -2.378376843245421E-003
   137.564854433566       7.660249299788858E-003  3.613654893454798E-003
   138.357735438947      -5.933815600804788E-003 -4.541862463228224E-003
   139.150616444327       4.002775157740454E-003  5.065640163891509E-003
   139.943497449708      -2.047917818447029E-003 -5.125304771187800E-003
   140.736378455089       2.411748578143953E-004  4.712108946485325E-003
   141.529259460470       1.266427739478933E-003 -3.872236667424870E-003
   142.322140465850      -2.355482561812131E-003  2.701871799176044E-003
   143.115021471231       2.947639175362566E-003 -1.335689968839223E-003
   143.907902476612      -3.012562692136944E-003 -6.865893147665707E-005
   144.700783481993       2.571024450796407E-003  1.347892896354507E-003
   145.493664487374      -1.693225716017521E-003 -2.350418774459754E-003
   146.286545492754       4.921554731018550E-004  2.952001073397832E-003
   147.079426498135       8.875543270871995E-004 -3.068357208107364E-003
   147.872307503516      -2.284278683393087E-003  2.663565669781022E-003
   148.665188508897       3.536167897803063E-003 -1.753618906009397E-003
   149.458069514277      -4.498380899305507E-003  4.050172396911674E-004
   150.250950519658       5.058932652941633E-003  1.271096361485288E-003
   151.043831525039      -5.151124775745750E-003 -3.128292771340811E-003
   151.836712530420       4.760431287303600E-003  4.996681322188322E-003
   152.629593535801      -3.924059453014004E-003 -6.696756782738390E-003
   153.422474541181       2.722827292363957E-003  8.055741249960641E-003
   154.215355546562      -1.267676088252914E-003 -8.926962117124310E-003
   155.008236551943      -3.143545173530562E-004  9.210689214892103E-003
   155.801117557324       1.890254532937756E-003 -8.871256052470872E-003
   156.593998562705      -3.327027273654321E-003  7.943823027869272E-003
   157.386879568085       4.497708792038699E-003 -6.527703836717600E-003
   158.179760573466      -5.291527577992550E-003  4.769439087204971E-003
   158.972641578847       5.627844257339229E-003 -2.842213032878386E-003
   159.765522584228      -5.469451785698054E-003  9.266556001585181E-004
   160.558403589608       4.830536907881614E-003  8.054531680606561E-004
   161.351284594989      -3.777092332188312E-003 -2.205066000172996E-003
   162.144165600370       2.420151988757273E-003  3.157730882215754E-003
   162.937046605751      -9.035766293775647E-004 -3.592951775765493E-003
   163.729927611132      -6.115490373585565E-004  3.490041588481659E-003
   164.522808616512       1.963933574021897E-003 -2.879542586605439E-003
   165.315689621893      -3.008709325667504E-003  1.839761506388633E-003
   166.108570627274       3.632075326256251E-003 -4.885709405964125E-004
   166.901451632655      -3.762621651117173E-003 -1.028792443761596E-003
   167.694332638036       3.378375689177730E-003  2.554718206977126E-003
   168.487213643416      -2.509067990983028E-003 -3.935418383276611E-003
   169.280094648797       1.233587965369224E-003  5.036499713971767E-003
   170.072975654178       3.270330453202620E-004 -5.755981765834885E-003
   170.865856659559      -2.020639157063707E-003  6.032987717694499E-003
   171.658737664939       3.678587726865126E-003 -5.850972378869699E-003
   172.451618670320      -5.133601500214726E-003  5.235649291781283E-003
   173.244499675701       6.239636961588940E-003 -4.249409080434745E-003
   174.037380681082      -6.890779048724828E-003  2.984815431718490E-003
   174.830261686463       7.034579080378920E-003 -1.558503091875490E-003
   175.623142691843      -6.676029604382098E-003  1.040925845961576E-004
   176.416023697224       5.872011765936049E-003  1.238617717273519E-003
   177.208904702605      -4.719812855031681E-003 -2.338955031439773E-003
   178.001785707986       3.344016182487546E-003  3.092372795949565E-003
   178.794666713366      -1.883896588336896E-003 -3.434621251087744E-003
   179.587547718747       4.812391095136716E-004  3.349769524479663E-003
   180.380428724128       7.319413525245910E-004 -2.871173467140647E-003
   181.173309729509      -1.645454553368566E-003  2.076222466179486E-003
   181.966190734890       2.181572107364602E-003 -1.076350488587270E-003
   182.759071740270      -2.302800424845733E-003  3.866753030937024E-006
   183.551952745651       2.015631005837025E-003  1.002879889510689E-003
   184.344833751032      -1.369659875310231E-003 -1.814502664345450E-003
   185.137714756413       4.520696139671868E-004  2.324282431971692E-003
   185.930595761794       6.219829440473224E-004 -2.459253548768469E-003
   186.723476767174      -1.722076634491797E-003  2.187622953538693E-003
   187.516357772555       2.716995927647744E-003 -1.521883034201219E-003
   188.309238777936      -3.489393281868009E-003  5.174735826231130E-004
   189.102119783317       3.948941943577134E-003  7.326562658142501E-004
   189.895000788697      -4.042242501828302E-003 -2.106876733761231E-003
   190.687881794078       3.757907970118417E-003  3.466324351609304E-003
   191.480762799459      -3.125858292699054E-003 -4.668456588565120E-003
   192.273643804840       2.211154246739762E-003  5.582439725246974E-003
   193.066524810221      -1.104425537396526E-003 -6.105572453381183E-003
   193.859405815601      -8.809620809247914E-005  6.178315381962901E-003
   194.652286820982       1.253046981562254E-003 -5.793897132655166E-003
   195.445167826363      -2.277666269794778E-003  4.999061966016531E-003
   196.238048831744       3.059071335171962E-003 -3.885819263426496E-003
   197.030929837124      -3.515871351671266E-003  2.577506262924518E-003
   197.823810842505       3.600017385109678E-003 -1.213253103892806E-003
   198.616691847886      -3.305393732827648E-003 -6.676361501932351E-005
   199.409572853267       2.670645986436605E-003  1.134723375713904E-003
   200.202453858648      -1.775701978429976E-003 -1.887173931912371E-003
   200.995334864028       7.329097172898407E-004  2.255160220386875E-003
   201.788215869409       3.256465758564393E-004 -2.211505606609182E-003
   202.581096874790      -1.262946221143293E-003  1.774241808450699E-003
   203.373977880171       1.952261187460917E-003 -1.005532474285313E-003
   204.166858885551      -2.291204068908704E-003  5.966938822130757E-006
   204.959739890932       2.213135716678050E-003  1.095350314130716E-003
   205.752620896313      -1.694738798458504E-003 -2.154018159443152E-003
   206.545501901694       7.589606197029642E-004  3.025626440597491E-003
   207.338382907075       5.269476891336462E-004 -3.581677511799727E-003
   208.131263912455      -2.057941980437941E-003  3.724634296947287E-003
   208.924144917836       3.701227207237266E-003 -3.400561237897025E-003
   209.717025923217      -5.308274610649327E-003  2.607729674510621E-003
   210.509906928598       6.727175004857672E-003 -1.399374567781572E-003
   211.302787933979      -7.814429850958668E-003 -1.211516426687627E-004
   212.095668939359       8.446733557312052E-003  1.813486182824405E-003
   212.888549944740      -8.534236477611937E-003 -3.519580330044864E-003
   213.681430950121       8.035382741690288E-003  5.084006768926568E-003
   214.474311955502      -6.969696915678504E-003 -6.369343535917064E-003
   215.267192960882       5.422260314925990E-003  7.264368318076153E-003
   216.060073966263      -3.535750736307967E-003 -7.687962389401024E-003
   216.852954971644       1.491696897659494E-003  7.593275516610461E-003
   217.645835977025       5.131114692315131E-004 -6.973687119152658E-003
   218.438716982406      -2.289290403475030E-003  5.868203096310228E-003
   219.231597987786       3.673672542839739E-003 -4.362750275730819E-003
   220.024478993167      -4.543667613661471E-003  2.585348872559714E-003
   220.817359998548       4.827282954302852E-003 -6.953224042264728E-004
   221.610241003929      -4.508689504634652E-003 -1.131856212137755E-003
   222.403122009309       3.628983770522146E-003  2.721945230963314E-003
   223.196003014690      -2.281913013091668E-003 -3.919401047376683E-003
   223.988884020071       6.047354620405119E-004  4.603019625742925E-003
   224.781765025452       1.235099404069962E-003 -4.698179702593281E-003
   225.574646030833      -3.056282680881863E-003  4.184542691525512E-003
   226.367527036213       4.681443128800545E-003 -3.098570143867271E-003
   227.160408041594      -5.954613420990127E-003  1.530765020626974E-003
   227.953289046975       6.756457419812287E-003  3.819541248204718E-004
   228.746170052356      -7.015408041129691E-003 -2.467994998878660E-003
   229.539051057737       6.713204134073096E-003  4.536115323978867E-003
   230.331932063117      -5.884123271041417E-003 -6.393008174486767E-003
   231.124813068498       4.608556598184483E-003  7.862671463745625E-003
   231.917694073879      -3.003024868897539E-003 -8.806029917672965E-003
   232.710575079260       1.209237362016489E-003  9.137829899593466E-003
   233.503456084640       6.164485473786258E-004 -8.836863630447061E-003
   234.296337090021      -2.313968027236033E-003  7.946698385772378E-003
   235.089218095402       3.732542526311183E-003 -6.567245724121211E-003
   235.882099100783      -4.745788295785846E-003  4.840414305330059E-003
   236.674980106164       5.266492513894088E-003 -2.933610551798777E-003
   237.467861111544      -5.257562727076909E-003  1.023346233120366E-003
   238.260742116925       4.736668963870825E-003  7.203481703901373E-004
   239.053623122306      -3.773958442241320E-003 -2.148436164986177E-003
   239.846504127687       2.483670423154162E-003  3.145647117078865E-003
   240.639385133067      -1.011176903513473E-003 -3.640409327965789E-003
   241.432266138448      -4.828125207752417E-004  3.610809513478211E-003
   242.225147143829       1.839123501544982E-003 -3.085788554910544E-003
   243.018028149210      -2.916367671469283E-003  2.141330165545753E-003
   243.810909154591       3.605011496648681E-003 -8.919884247682128E-004
   244.603790159971      -3.837951614787105E-003 -5.213660280382266E-004
   245.396671165352       3.596643363210658E-003  1.946277672499357E-003
   246.189552170733      -2.912267740129655E-003 -3.234332053215522E-003
   246.982433176114       1.861887179206300E-003  4.255981931449645E-003
   247.775314181495      -5.599730317014892E-004 -4.912967320324218E-003
   248.568195186875      -8.539466399443761E-004  5.147040444801923E-003
   249.361076192256       2.230444296929103E-003 -4.944259160560780E-003
   250.153957197637      -3.426708089712726E-003  4.334806867926639E-003
   250.946838203018       4.322513701977141E-003 -3.388881648782387E-003
   251.739719208398      -4.833415797329581E-003  2.209369421670535E-003
   252.532600213779       4.919138606845591E-003 -9.217561760766332E-004
   253.325481219160      -4.586156319625347E-003 -3.384806085995559E-004
   254.118362224541       3.884829155534572E-003  1.440366512628000E-003
   254.911243229922      -2.902350209397401E-003 -2.272258196921037E-003
   255.704124235302       1.752785581732858E-003  2.754782988952801E-003
   256.497005240683      -5.651109866906513E-004 -2.849845607194777E-003
   257.289886246064      -5.299999380881700E-004  2.564516151877498E-003
   258.082767251445       1.413656159190203E-003 -1.949578542419286E-003
   258.875648256826      -1.991214794002660E-003  1.093225135277289E-003
   259.668529262206       2.202352656970634E-003 -1.108181765871526E-004
   260.461410267587      -2.027553512385052E-003 -8.680810723082901E-004
   261.254291272968       1.490219135615650E-003  1.714023789421423E-003
   262.047172278349      -6.541149696789546E-004 -2.311839218654256E-003
   262.840053283729      -3.836150604021975E-004  2.573201196506695E-003
   263.632934289110       1.503142619464628E-003 -2.446322049471560E-003
   264.425815294491      -2.575224381502250E-003  1.921819648201165E-003
   265.218696299872       3.475602827449790E-003 -1.034227351488305E-003
   266.011577305253      -4.098900725016060E-003 -1.409191480971224E-004
   266.804458310633       4.370315902659119E-003  1.494072150423622E-003
   267.597339316014      -4.253564185581975E-003 -2.892132879228635E-003
   268.390220321395       3.753974498304981E-003  4.191698765820684E-003
   269.183101326776      -2.916517836019005E-003 -5.254367154414768E-003
   269.975982332156       1.819715466985730E-003  5.963004263936490E-003
   270.768863337537      -5.672232779101586E-004 -6.236991766960441E-003
   271.561744342918      -7.213419764436260E-004  6.043504000811496E-003
   272.354625348299       1.920076764029388E-003 -5.401997269586913E-003
   273.147506353680      -2.907804829177069E-003  4.380932840544647E-003
   273.940387359060       3.580788480268226E-003 -3.088249225192434E-003
   274.733268364441      -3.865741441357223E-003  1.658378126286508E-003
   275.526149369822       3.730447889393290E-003 -2.380850277548862E-004
   276.319030375203      -3.189545094540064E-003 -1.027752075201125E-003
   277.111911380583       2.304356060281804E-003  2.009890692808142E-003
   277.904792385964      -1.177000595723704E-003 -2.607292193002983E-003
   278.697673391345      -6.016649744791316E-005  2.757436224779728E-003
   279.490554396726       1.258372396005533E-003 -2.443197014818705E-003
   280.283435402107      -2.267933020238805E-003  1.695331628468968E-003
   281.076316407487       2.953838959413261E-003 -5.900888878500447E-004
   281.869197412868      -3.209863006927385E-003 -7.580112050616726E-004
   282.662078418249       2.969816983796799E-003  2.207650164229265E-003
   283.454959423630      -2.214923786354946E-003 -3.605394579929674E-003
   284.247840429011       9.767495747723246E-004  4.802161247589703E-003
   285.040721434391       6.643022519974479E-004 -5.669701194554087E-003
   285.833602439772      -2.584443769177845E-003  6.115030660957007E-003
   286.626483445153       4.625233256871308E-003 -6.090498720378154E-003
   287.419364450534      -6.605303738957341E-003  5.597297823605299E-003
   288.212245455914       8.335672397987475E-003 -4.681287786564229E-003
   289.005126461295      -9.639629925448895E-003  3.422481357131648E-003
   289.798007466676       1.037661506031815E-002 -1.922637592298608E-003
   290.590888472057      -1.046548667092807E-002  2.964451996829975E-004
   291.383769477438       9.899130928787803E-003  1.331693780144183E-003
   292.176650482818      -8.743987970659006E-003 -2.829388445953800E-003
   292.969531488199       7.125265752138332E-003  4.063293374796014E-003
   293.762412493580      -5.205306745156527E-003 -4.914136941022428E-003
   294.555293498961       3.162984943518173E-003  5.295613985942344E-003
   295.348174504342      -1.177343732551620E-003 -5.170022791356838E-003
   296.141055509722      -5.855423045735568E-004  4.555760497428432E-003
   296.933936515103       1.984328198357446E-003 -3.525778988849894E-003
   297.726817520484      -2.913230618322055E-003  2.198684692306334E-003
   298.519698525865       3.310955556498602E-003 -7.248770075120457E-004
   299.312579531245      -3.166266653405987E-003 -7.300779715309256E-004
   300.105460536626       2.519048081340741E-003  2.002958234713910E-003
   300.898341542007      -1.456367156834498E-003 -2.949608593821912E-003
   301.691222547388       1.037323933558978E-004  3.459372288916996E-003
   302.484103552769       1.387657161175818E-003 -3.465967531418576E-003
   303.276984558149      -2.856403644024540E-003  2.953904167567720E-003
   304.069865563530       4.147533786388636E-003 -1.960001138375609E-003
   304.862746568911      -5.128422594854025E-003  5.700687222267692E-004
   305.655627574292       5.702086744780678E-003  1.088759656990814E-003
   306.448508579672      -5.816012049228290E-003 -2.859371372453971E-003
   307.241389585053       5.465165299249939E-003  4.569131585764340E-003
   308.034270590434      -4.688969121324771E-003 -6.047088259838775E-003
   308.827151595815       3.563719647995839E-003  7.143227948626432E-003
   309.620032601196      -2.193311250292859E-003 -7.747662773192206E-003
   310.412913606576       7.007607171029945E-004  7.805685164486043E-003
   311.205794611957       7.794410314459631E-004 -7.324197599920916E-003
   311.998675617338      -2.110564708900826E-003  6.367656531274999E-003
   312.791556622719       3.166501793551246E-003 -5.045888166762666E-003
   313.584437628099      -3.847148774257818E-003  3.498443493483845E-003
   314.377318633480       4.092446274147994E-003 -1.879089550280016E-003
   315.170199638861      -3.891173418905909E-003  3.415521219368408E-004
   315.963080644242       3.282661089329290E-003  9.737437890906695E-004
   316.755961649623      -2.351729499328443E-003 -1.951954292149907E-003
   317.548842655003       1.218303279041753E-003  2.514332242484311E-003
   318.341723660384      -2.346843111936819E-005 -2.625746634364840E-003
   319.134604665765      -1.086284924724665E-003  2.298094537514310E-003
   319.927485671146       1.974964015637446E-003 -1.588977166074785E-003
   320.720366676527      -2.531544229280401E-003  5.956160565946532E-004
   321.513247681907       2.681605781432129E-003  5.554367491272167E-004
   322.306128687288      -2.395021500142439E-003 -1.721760726798269E-003
   323.099009692669       1.688989052961757E-003  2.760318085589531E-003
   323.891890698050      -6.261961620183916E-004 -3.542904550351983E-003
   324.684771703430      -6.915700882177626E-004  3.970142466023114E-003
   325.477652708811       2.133595385392867E-003 -3.982420451309903E-003
   326.270533714192      -3.553118363186455E-003  3.566385342942483E-003
   327.063414719573       4.801788714147655E-003 -2.756002953079935E-003
   327.856295724954      -5.744704910472120E-003  1.627939665702261E-003
   328.649176730334       6.275083781192516E-003 -2.920841599949892E-004
   329.442057735715      -6.327250814968298E-003 -1.120925528029231E-003
   330.234938741096       5.885940279635756E-003  2.472968667915536E-003
   331.027819746477      -4.989627670572493E-003 -3.631054334992356E-003
   331.820700751857       3.726596617727350E-003  4.479035938334861E-003
   332.613581757238      -2.224400871155080E-003 -4.928620577646068E-003
   333.406462762619       6.349995194376516E-004  4.929140004223810E-003
   334.199343768000       8.818293017705497E-004 -4.474567991875480E-003
   334.992224773381      -2.174830496956826E-003  3.606093847148847E-003
   335.785105778761       3.116100744451514E-003 -2.409315979999460E-003
   336.577986784142      -3.613431636303988E-003  1.006198451758874E-003
   337.370867789523       3.619240192914601E-003  4.572048058557648E-004
   338.163748794904      -3.135254881139972E-003 -1.825760616980583E-003
   338.956629800285       2.212409972076868E-003  2.951301804696987E-003
   339.749510805665      -9.458460127908070E-004 -3.707996428209778E-003
   340.542391811046      -5.345746469434035E-004  4.005466301516513E-003
   341.335272816427       2.077339542866833E-003 -3.798347582005581E-003
   342.128153821808      -3.524643595391222E-003  3.091369478577844E-003
   342.921034827188       4.728451403263290E-003 -1.939492077808528E-003
   343.713915832569      -5.565551398362636E-003  4.431346152506551E-004
   344.506796837950       5.949926152916815E-003  1.261031573142668E-003
   345.299677843331      -5.841005276288739E-003 -3.012923265677439E-003
   346.092558848712       5.246866537329914E-003  4.644518850974820E-003
   346.885439854092      -4.222222913767877E-003 -5.996805356970203E-003
   347.678320859473       2.861933406666136E-003  6.936737073961000E-003
   348.471201864854      -1.291416017212364E-003 -7.372228350969483E-003
   349.264082870235      -3.447026865633235E-004  7.262791785911306E-003
   350.056963875615       1.895046457090046E-003 -6.623765232765347E-003
   350.849844880996      -3.214971431227588E-003  5.523439518229054E-003
   351.642725886377       4.180677988827394E-003 -4.074154076426481E-003
   352.435606891758      -4.702537635269273E-003  2.419458677497445E-003
   353.228487897139       4.735475269756387E-003 -7.193350668623091E-004
   354.021368902519      -4.284478890187357E-003 -8.651635946099717E-004
   354.814249907900       3.404300765513378E-003  2.186894582113768E-003
   355.607130913281      -2.193507560141819E-003 -3.126241338582663E-003
   356.400011918662       7.838154817937317E-004  3.602220159585565E-003
   357.192892924042       6.739214002681664E-004 -3.579951755006558E-003
   357.985773929423      -2.025493940525580E-003  3.073646315650477E-003
   358.778654934804       3.129246546779423E-003 -2.144712614179194E-003
   359.571535940185      -3.870515228355964E-003  8.951409196171468E-004
   360.364416945566       4.173172371906041E-003  5.431650603216505E-004
   361.157297950946      -4.007151686620606E-003 -2.021985371528189E-003
   361.950178956327       3.391221934414932E-003  3.391867713540244E-003
   362.743059961708      -2.390732295720524E-003 -4.517097676649671E-003
   363.535940967089       1.110521724304640E-003  5.288987491457839E-003
   364.328821972470       3.163613020704232E-004 -5.636151105100134E-003
   365.121702977850      -1.743049570025872E-003  5.530849798805850E-003
   365.914583983231       3.024863175549345E-003 -4.991003853142679E-003
   366.707464988612      -4.035076064416014E-003  4.077919057059031E-003
   367.500345993993       4.678434232272865E-003 -2.890030331308844E-003
   368.293226999373      -4.900682720850127E-003  1.553040094570058E-003
   369.086108004754       4.693109915223231E-003 -2.069714468280759E-004
   369.878989010135      -4.092071382416556E-003 -1.008886941819781E-003
   370.671870015516       3.174133292123793E-003  1.971495893295688E-003
   371.464751020897      -2.047658077905238E-003 -2.587957924781001E-003
   372.257632026277       8.415849138074564E-004  2.805863793937559E-003
   373.050513031658       3.077898526936754E-004 -2.618837546474029E-003
   373.843394037039      -1.270954025033270E-003  2.066826723730049E-003
   374.636275042420       1.938861477619242E-003 -1.231345556982186E-003
   375.429156047801      -2.234657535815387E-003  2.263529495037283E-004
   376.222037053181       2.122095080259236E-003  8.142020209474241E-004
   377.014918058562      -1.609645219551673E-003 -1.750866245599574E-003
   377.807799063943       7.497893293484903E-004  2.453727414651104E-003
   378.600680069324       3.664865163701602E-004 -2.816502572247723E-003
   379.393561074704      -1.619444274118671E-003  2.768265877999687E-003
   380.186442080085       2.873561054256945E-003 -2.281669131894405E-003
   380.979323085466      -3.992276964579926E-003  1.376877722612067E-003
   381.772204090847       4.852805908729571E-003 -1.208564443731775E-004
   382.565085096228      -5.359179670882473E-003 -1.377995065790081E-003
   383.357966101608       5.451853258842998E-003  2.979607988189083E-003
   384.150847106989      -5.112750950051836E-003 -4.525994348614217E-003
   384.943728112370       4.365608326190470E-003  5.858265436336393E-003
   385.736609117751      -3.272578586769516E-003 -6.835464176442458E-003
   386.529490123131       1.928634929964516E-003  7.352569713007901E-003
   387.322371128512      -4.546940099183670E-004 -7.354117376924864E-003
   388.115252133893      -1.011053771601977E-003  6.840392306098765E-003
   388.908133139274       2.324921429758177E-003 -5.865418504769010E-003
   389.701014144655      -3.352885376226231E-003  4.528596252653315E-003
   390.493895150035       3.987175666596410E-003 -2.962923108661763E-003
   391.286776155416      -4.160870798612106E-003  1.321890975917288E-003
   392.079657160797       3.857446373707085E-003  2.342309014750293E-004
   392.872538166178      -3.113806360892392E-003 -1.552567473298841E-003
   393.665419171558       2.016863330008734E-003  2.501711205877680E-003
   394.458300176939      -6.946267338119188E-004 -2.984511919373828E-003
   395.251181182320      -6.968728754862082E-004  2.948097772791126E-003
   396.044062187701       1.989344299357287E-003 -2.389787149986552E-003
   396.836943193082      -3.019113149269791E-003  1.357994576471053E-003
   397.629824198462       3.643528128266221E-003  5.219503874593495E-005
   398.422705203843      -3.755414082816302E-003 -1.708516708499353E-003
   399.215586209224       3.294363108249015E-003  3.455242386744275E-003
   400.008467214605      -2.254083873423695E-003 -5.129736722654784E-003
   400.801348219986       6.855195013194390E-004  6.579905880726386E-003
   401.594229225366       1.304218777397239E-003 -7.680031379268712E-003
   402.387110230747      -3.557192497455380E-003  8.342092723708942E-003
   403.179991236128       5.875158816822058E-003 -8.520015565070267E-003
   403.972872241509      -8.037214786456203E-003  8.206176537781296E-003
   404.765753246890       9.826119624415978E-003 -7.423195556568737E-003
   405.558634252270      -1.106110454502599E-002  6.217629403765099E-003
   406.351515257651       1.162856869136254E-002 -4.661507935596880E-003
   407.144396263032      -1.149847391950139E-002  2.860498377991705E-003
   407.937277268413       1.071951361335357E-002 -9.587972303425080E-004
   408.730158273793      -9.398090467900494E-003 -8.699970233869850E-004
   409.523039279174       7.674105817709836E-003  2.447361807068383E-003
   410.315920284555      -5.703521225810705E-003 -3.620312762931653E-003
   411.108801289936       3.648538222909759E-003  4.286106035956539E-003
   411.901682295317      -1.670463300561184E-003 -4.404983896376446E-003
   412.694563300697      -7.905827047511270E-005  4.001266030645239E-003
   413.487444306078       1.469223619666794E-003 -3.156060180788922E-003
   414.280325311459      -2.401824066375546E-003  1.994770429856156E-003
   415.073206316840       2.821041920104631E-003 -6.715840764340101E-004
   415.866087322220      -2.719308489479353E-003 -6.475343167621583E-004
   416.658968327601       2.138146156114546E-003  1.801991682707525E-003
   417.451849332982      -1.163767434207715E-003 -2.652497545241664E-003
   418.244730338363      -8.210594995512727E-005  3.094461065879713E-003
   419.037611343744       1.455201670606815E-003 -3.067740162828529E-003
   419.830492349124      -2.804017915499439E-003  2.561991788539480E-003
   420.623373354505       3.985785609617338E-003 -1.617334587745992E-003
   421.416254359886      -4.881144844226710E-003  3.204819678842537E-004
   422.209135365267       5.405552151417775E-003  1.203224239315332E-003
   423.002016370648      -5.515703232364902E-003 -2.801483353559896E-003
   423.794897376028       5.210150648557814E-003  4.310253563046355E-003
   424.587778381409      -4.524954534082459E-003 -5.572255384358886E-003
   425.380659386790       3.526985738992192E-003  6.457254941828921E-003
   426.173540392171      -2.307818228940485E-003 -6.880308431245995E-003
   426.966421397551       9.788942897940725E-004  6.812688242213997E-003
   427.759302402932       3.346320421312578E-004 -6.282046038095028E-003
   428.552183408313      -1.504702302630793E-003  5.363082486425750E-003
   429.345064413694       2.415977276673401E-003 -4.163676541634975E-003
   430.137945419075      -2.982422201461177E-003  2.811054488041842E-003
   430.930826424455       3.159879233797223E-003 -1.439540911055290E-003
   431.723707429836      -2.951677202406309E-003  1.791927407716490E-004
   432.516588435217       2.407048883248113E-003  8.554092100200747E-004
   433.309469440598      -1.613714060740911E-003 -1.575814737150973E-003
   434.102350445978       6.863856643949922E-004  1.928544192758160E-003
   434.895231451359       2.471380391390509E-004 -1.900728798589368E-003
   435.688112456740      -1.060752692860622E-003  1.521572878067055E-003
   436.480993462121       1.644218260777938E-003 -8.592692090128153E-004
   437.273874467502      -1.915325052205124E-003  1.360806552248129E-005
   438.066755472882       1.828844865935745E-003  8.949590630254315E-004
   438.859636478263      -1.381369484053117E-003 -1.738645233611200E-003
   439.652517483644       6.115651879830135E-004  2.396636355477595E-003
   440.445398489025       4.041261095850631E-004 -2.768872769108434E-003
   441.238279494405      -1.559786317270566E-003  2.787827777381837E-003
   442.031160499786       2.731302875054982E-003 -2.426943665770159E-003
   442.824041505167      -3.789312203695398E-003  1.704600429417979E-003
   443.616922510548       4.612460689597983E-003 -6.828169885334731E-004
   444.409803515929      -5.099920321396146E-003 -5.395521222295023E-004
   445.202684521309       5.182472973287998E-003  1.838430557118531E-003
   445.995565526690      -4.831523211189754E-003 -3.079111417761981E-003
   446.788446532071       4.064895285291583E-003  4.131278846209888E-003
   447.581327537452      -2.947720249964146E-003 -4.882281019779658E-003
   448.374208542832       1.587072050938030E-003  5.247729712400929E-003
   449.167089548213      -1.205180651981566E-004 -5.179527679664233E-003
   449.959970553594      -1.299542496784225E-003  4.671400519154363E-003
   450.752851558975       2.523100398685668E-003 -3.761328437767290E-003
   451.545732564356      -3.418962619039528E-003  2.529916946540782E-003
   452.338613569736       3.888732567709802E-003 -1.094141715609782E-003
   453.131494575117      -3.877242222495972E-003 -4.032640193207885E-004
   453.924375580498       3.378651651540843E-003  1.807726385940832E-003
   454.717256585879      -2.437697367714723E-003 -2.968504557542923E-003
   455.510137591260       1.145919545525932E-003  3.754378367672930E-003
   456.303018596640       3.668616359021287E-004 -4.067643364882258E-003
   457.095899602021      -1.945081264991857E-003  3.854918660308736E-003
   457.888780607402       3.422814109529933E-003 -3.113625089500301E-003
   458.681661612783      -4.640525693898084E-003  1.893452324161715E-003
   459.474542618163       5.461524034804551E-003 -2.926622387014475E-004
   460.267423623544      -5.786410535873006E-003 -1.550385829713064E-003
   461.060304628925       5.563941236647610E-003  3.469629607883316E-003
   461.853185634306      -4.796979365248794E-003 -5.286435565438634E-003
   462.646066639687       3.542685527602644E-003  6.826163506530182E-003
   463.438947645067      -1.906805830626430E-003 -7.934901064881334E-003
   464.231828650448       3.284846727060831E-005  8.495132868692861E-003
   465.024709655829       1.912176833600896E-003 -8.438916007990556E-003
   465.817590661210      -3.753409627336200E-003  7.756769376881767E-003
   466.610471666591       5.323544555953333E-003 -6.500430435859970E-003
   467.403352671971      -6.477183651086970E-003  4.778426005708550E-003
   468.196233677352       7.103765468257332E-003 -2.744930488258788E-003
   468.989114682733      -7.138377100588964E-003  5.837948778930691E-004
   469.781995688114       6.569157412404493E-003  1.509830558465682E-003
   470.574876693494      -5.439879368768991E-003 -3.348138228078687E-003
   471.367757698875       3.846875591512027E-003  4.767948424763576E-003
   472.160638704256      -1.930395105890235E-003 -5.645362160034788E-003
   472.953519709637      -1.386806649372733E-004  5.906679120291516E-003
   473.746400715018       2.175276436909097E-003 -5.534666703391393E-003
   474.539281720398      -3.997950467101961E-003  4.569592325131209E-003
   475.332162725779       5.446281756231819E-003 -3.104893978304501E-003
   476.125043731160      -6.396093805300098E-003  1.277892802183107E-003
   476.917924736541       6.771039569232034E-003  7.435378705818533E-004
   477.710805741921      -6.549437920673945E-003 -2.777013028535786E-003
   478.503686747302       5.765705002004694E-003  4.642780750185095E-003
   479.296567752683      -4.506229865714632E-003 -6.180281745150016E-003
   480.089448758064       2.900071751699183E-003  7.262553173752703E-003
   480.882329763445      -1.105384195623131E-003 -7.807210199054605E-003
   481.675210768825      -7.070220204872021E-004  7.783160243354601E-003
   482.468091774206       2.371132279955801E-003 -7.212627099215199E-003
   483.260972779587      -3.742121461160695E-003  6.168369965376331E-003
   484.053853784968       4.709759780109643E-003 -4.766174160844027E-003
   484.846734790349      -5.207511928486660E-003  3.152944492580242E-003
   485.639615795729       5.216869787570589E-003 -1.491267832958677E-003
   486.432496801110      -4.767137675445968E-003 -5.791880756687027E-005
   487.225377806491       3.931114730136994E-003  1.352323191984157E-003
   488.018258811872      -2.817066140424964E-003 -2.282719092494360E-003
   488.811139817252       1.557445076180255E-003  2.783143061223439E-003
   489.604020822633      -2.951911529216866E-004 -2.836022467750501E-003
   490.396901828014      -8.310946504274914E-004  2.472075337232677E-003
   491.189782833395       1.701493375033279E-003 -1.765305258841124E-003
   491.982663838776      -2.227017989416987E-003  8.237808885740738E-004
   492.775544844156       2.358416273568452E-003  2.227882575320811E-004
   493.568425849537      -2.090599962354128E-003 -1.237394106206247E-003
   494.361306854918       1.462282607538039E-003  2.090525796089424E-003
   495.154187860299      -5.509376865530931E-004 -2.673913016965151E-003
   495.947068865680      -5.363111581712640E-004  2.911825076363099E-003
   496.739949871060       1.674827013174093E-003 -2.768793461189988E-003
   497.532830876441      -2.736264241115613E-003  2.252998757432867E-003
   498.325711881822       3.602506202879998E-003 -1.415002024040492E-003
   499.118592887203      -4.178198590645457E-003  3.419534583948726E-004
   499.911473892583       4.400529674073273E-003  8.521652759734109E-004
   500.704354897964      -4.245288721795258E-003 -2.039329638417199E-003
   501.497235903345       3.728754050415099E-003  3.092006000754276E-003
   502.290116908726      -2.905493366119094E-003 -3.897814618744875E-003
   503.082997914107       1.862523810164360E-003  4.372473446401383E-003
   503.875878919487      -7.103875128320897E-004 -4.469239753576479E-003
   504.668759924868      -4.283036636388779E-004  4.183610117085203E-003
   505.461640930249       1.432108907874181E-003 -3.552959823429452E-003
   506.254521935630      -2.194541286934110E-003  2.651669766888215E-003
   507.047402941010       2.636644161116491E-003 -1.582710207181995E-003
   507.840283946391      -2.716539211440336E-003  4.666573918824001E-004
   508.633164951772       2.434598983928339E-003  5.709406435601206E-004
   509.426045957153      -1.833653319338912E-003 -1.412823880854930E-003
   510.218926962534       9.943521765364844E-004  1.962671704369820E-003
   511.011807967914      -2.634077341186241E-005 -2.155802618933644E-003
   511.804688973295      -9.437220728899252E-004  1.966686683226736E-003
   512.597569978676       1.786008856738733E-003 -1.412350338770376E-003
   513.390450984057      -2.381780335295144E-003  5.512036793301774E-004
   514.183331989437       2.636571047047082E-003  5.226727130339574E-004
   514.976212994818      -2.490931976974742E-003 -1.689244493765223E-003
   515.769094000199       1.927615836872741E-003  2.815263946563177E-003
   516.561975005580      -9.744695416053647E-004 -3.768704606385792E-003
