     4.00000     0.68186550E-02
     4.00400     0.70478358E-02
     4.00800     0.72776727E-02
     4.01200     0.75081735E-02
     4.01600     0.77393458E-02
     4.02000     0.79711974E-02
     4.02400     0.82037362E-02
     4.02800     0.84369699E-02
     4.03200     0.86709066E-02
     4.03600     0.89055540E-02
     4.04000     0.91409203E-02
     4.04400     0.93770134E-02
     4.04800     0.96138415E-02
     4.05200     0.98514128E-02
     4.05600     0.10089735E-01
     4.06000     0.10328817E-01
     4.06400     0.10568667E-01
     4.06800     0.10809294E-01
     4.07200     0.11050704E-01
     4.07600     0.11292908E-01
     4.08000     0.11535914E-01
     4.08400     0.11779730E-01
     4.08800     0.12024364E-01
     4.09200     0.12269826E-01
     4.09600     0.12516125E-01
     4.10000     0.12763268E-01
     4.10400     0.13011266E-01
     4.10800     0.13260126E-01
     4.11200     0.13509858E-01
     4.11600     0.13760471E-01
     4.12000     0.14011974E-01
     4.12400     0.14264376E-01
     4.12800     0.14517687E-01
     4.13200     0.14771916E-01
     4.13600     0.15027071E-01
     4.14000     0.15283164E-01
     4.14400     0.15540202E-01
     4.14800     0.15798196E-01
     4.15200     0.16057156E-01
     4.15600     0.16317090E-01
     4.16000     0.16578010E-01
     4.16400     0.16839924E-01
     4.16800     0.17102843E-01
     4.17200     0.17366777E-01
     4.17600     0.17631735E-01
     4.18000     0.17897729E-01
     4.18400     0.18164768E-01
     4.18800     0.18432862E-01
     4.19200     0.18702022E-01
     4.19600     0.18972259E-01
     4.20000     0.19243583E-01
     4.20400     0.19516005E-01
     4.20800     0.19789535E-01
     4.21200     0.20064184E-01
     4.21600     0.20339964E-01
     4.22000     0.20616884E-01
     4.22400     0.20894957E-01
     4.22800     0.21174194E-01
     4.23200     0.21454605E-01
     4.23600     0.21736202E-01
     4.24000     0.22018997E-01
     4.24400     0.22303001E-01
     4.24800     0.22588226E-01
     4.25200     0.22874683E-01
     4.25600     0.23162384E-01
     4.26000     0.23451342E-01
     4.26400     0.23741568E-01
     4.26800     0.24033074E-01
     4.27200     0.24325874E-01
     4.27600     0.24619978E-01
     4.28000     0.24915399E-01
     4.28400     0.25212151E-01
     4.28800     0.25510245E-01
     4.29200     0.25809695E-01
     4.29600     0.26110513E-01
     4.30000     0.26412712E-01
     4.30400     0.26716306E-01
     4.30800     0.27021307E-01
     4.31200     0.27327730E-01
     4.31600     0.27635587E-01
     4.32000     0.27944892E-01
     4.32400     0.28255659E-01
     4.32800     0.28567902E-01
     4.33200     0.28881634E-01
     4.33600     0.29196869E-01
     4.34000     0.29513623E-01
     4.34400     0.29831909E-01
     4.34800     0.30151741E-01
     4.35200     0.30473135E-01
     4.35600     0.30796104E-01
     4.36000     0.31120665E-01
     4.36400     0.31446831E-01
     4.36800     0.31774618E-01
     4.37200     0.32104041E-01
     4.37600     0.32435117E-01
     4.38000     0.32767859E-01
     4.38400     0.33102284E-01
     4.38800     0.33438409E-01
     4.39200     0.33776248E-01
     4.39600     0.34115818E-01
     4.40000     0.34457135E-01
     4.40400     0.34800217E-01
     4.40800     0.35145078E-01
     4.41200     0.35491737E-01
     4.41600     0.35840211E-01
     4.42000     0.36190515E-01
     4.42400     0.36542669E-01
     4.42800     0.36896688E-01
     4.43200     0.37252591E-01
     4.43600     0.37610396E-01
     4.44000     0.37970121E-01
     4.44400     0.38331783E-01
     4.44800     0.38695401E-01
     4.45200     0.39060993E-01
     4.45600     0.39428579E-01
     4.46000     0.39798177E-01
     4.46400     0.40169806E-01
     4.46800     0.40543486E-01
     4.47200     0.40919236E-01
     4.47600     0.41297076E-01
     4.48000     0.41677025E-01
     4.48400     0.42059103E-01
     4.48800     0.42443332E-01
     4.49200     0.42829731E-01
     4.49600     0.43218321E-01
     4.50000     0.43609123E-01
     4.50400     0.44002158E-01
     4.50800     0.44397448E-01
     4.51200     0.44795013E-01
     4.51600     0.45194877E-01
     4.52000     0.45597060E-01
     4.52400     0.46001585E-01
     4.52800     0.46408475E-01
     4.53200     0.46817753E-01
     4.53600     0.47229440E-01
     4.54000     0.47643562E-01
     4.54400     0.48060140E-01
     4.54800     0.48479198E-01
     4.55200     0.48900762E-01
     4.55600     0.49324854E-01
     4.56000     0.49751500E-01
     4.56400     0.50180724E-01
     4.56800     0.50612550E-01
     4.57200     0.51047006E-01
     4.57600     0.51484115E-01
     4.58000     0.51923904E-01
     4.58400     0.52366399E-01
     4.58800     0.52811627E-01
     4.59200     0.53259613E-01
     4.59600     0.53710386E-01
     4.60000     0.54163972E-01
     4.60400     0.54620399E-01
     4.60800     0.55079696E-01
     4.61200     0.55541889E-01
     4.61600     0.56007008E-01
     4.62000     0.56475082E-01
     4.62400     0.56946139E-01
     4.62800     0.57420210E-01
     4.63200     0.57897324E-01
     4.63600     0.58377512E-01
     4.64000     0.58860804E-01
     4.64400     0.59347230E-01
     4.64800     0.59836823E-01
     4.65200     0.60329613E-01
     4.65600     0.60825633E-01
     4.66000     0.61324915E-01
     4.66400     0.61827492E-01
     4.66800     0.62333397E-01
     4.67200     0.62842664E-01
     4.67600     0.63355326E-01
     4.68000     0.63871417E-01
     4.68400     0.64390973E-01
     4.68800     0.64914028E-01
     4.69200     0.65440618E-01
     4.69600     0.65970779E-01
     4.70000     0.66504548E-01
     4.70400     0.67041960E-01
     4.70800     0.67583054E-01
     4.71200     0.68127867E-01
     4.71600     0.68676437E-01
     4.72000     0.69228803E-01
     4.72400     0.69785004E-01
     4.72800     0.70345079E-01
     4.73200     0.70909069E-01
     4.73600     0.71477014E-01
     4.74000     0.72048954E-01
     4.74400     0.72624933E-01
     4.74800     0.73204991E-01
     4.75200     0.73789171E-01
     4.75600     0.74377517E-01
     4.76000     0.74970072E-01
     4.76400     0.75566879E-01
     4.76800     0.76167985E-01
     4.77200     0.76773433E-01
     4.77600     0.77383271E-01
     4.78000     0.77997544E-01
     4.78400     0.78616300E-01
     4.78800     0.79239585E-01
     4.79200     0.79867449E-01
     4.79600     0.80499940E-01
     4.80000     0.81137108E-01
     4.80400     0.81779002E-01
     4.80800     0.82425674E-01
     4.81200     0.83077175E-01
     4.81600     0.83733557E-01
     4.82000     0.84394872E-01
     4.82400     0.85061175E-01
     4.82800     0.85732519E-01
     4.83200     0.86408959E-01
     4.83600     0.87090550E-01
     4.84000     0.87777350E-01
     4.84400     0.88469415E-01
     4.84800     0.89166802E-01
     4.85200     0.89869571E-01
     4.85600     0.90577781E-01
     4.86000     0.91291491E-01
     4.86400     0.92010764E-01
     4.86800     0.92735660E-01
     4.87200     0.93466242E-01
     4.87600     0.94202574E-01
     4.88000     0.94944720E-01
     4.88400     0.95692745E-01
     4.88800     0.96446715E-01
     4.89200     0.97206697E-01
     4.89600     0.97972760E-01
     4.90000     0.98744971E-01
     4.90400     0.99523401E-01
     4.90800     0.10030812    
     4.91200     0.10109920    
     4.91600     0.10189672    
     4.92000     0.10270074    
     4.92400     0.10351134    
     4.92800     0.10432861    
     4.93200     0.10515261    
     4.93600     0.10598342    
     4.94000     0.10682112    
     4.94400     0.10766580    
     4.94800     0.10851753    
     4.95200     0.10937640    
     4.95600     0.11024248    
     4.96000     0.11111588    
     4.96400     0.11199666    
     4.96800     0.11288492    
     4.97200     0.11378075    
     4.97600     0.11468424    
     4.98000     0.11559548    
     4.98400     0.11651456    
     4.98800     0.11744157    
     4.99200     0.11837662    
     4.99600     0.11931979    
     5.00000     0.12027119    
     5.00400     0.12123091    
     5.00800     0.12219906    
     5.01200     0.12317574    
     5.01600     0.12416106    
     5.02000     0.12515511    
     5.02400     0.12615802    
     5.02800     0.12716988    
     5.03200     0.12819080    
     5.03600     0.12922091    
     5.04000     0.13026031    
     5.04400     0.13130912    
     5.04800     0.13236745    
     5.05200     0.13343544    
     5.05600     0.13451319    
     5.06000     0.13560084    
     5.06400     0.13669850    
     5.06800     0.13780631    
     5.07200     0.13892439    
     5.07600     0.14005288    
     5.08000     0.14119191    
     5.08400     0.14234161    
     5.08800     0.14350212    
     5.09200     0.14467358    
     5.09600     0.14585614    
     5.10000     0.14704994    
     5.10400     0.14825512    
     5.10800     0.14947184    
     5.11200     0.15070024    
     5.11600     0.15194048    
     5.12000     0.15319273    
     5.12400     0.15445712    
     5.12800     0.15573384    
     5.13200     0.15702304    
     5.13600     0.15832488    
     5.14000     0.15963955    
     5.14400     0.16096721    
     5.14800     0.16230805    
     5.15200     0.16366222    
     5.15600     0.16502993    
     5.16000     0.16641136    
     5.16400     0.16780669    
     5.16800     0.16921611    
     5.17200     0.17063982    
     5.17600     0.17207802    
     5.18000     0.17353091    
     5.18400     0.17499869    
     5.18800     0.17648158    
     5.19200     0.17797978    
     5.19600     0.17949351    
     5.20000     0.18102300    
     5.20400     0.18256845    
     5.20800     0.18413012    
     5.21200     0.18570821    
     5.21600     0.18730298    
     5.22000     0.18891466    
     5.22400     0.19054349    
     5.22800     0.19218973    
     5.23200     0.19385363    
     5.23600     0.19553544    
     5.24000     0.19723543    
     5.24400     0.19895387    
     5.24800     0.20069103    
     5.25200     0.20244719    
     5.25600     0.20422263    
     5.26000     0.20601764    
     5.26400     0.20783252    
     5.26800     0.20966756    
     5.27200     0.21152306    
     5.27600     0.21339935    
     5.28000     0.21529673    
     5.28400     0.21721553    
     5.28800     0.21915608    
     5.29200     0.22111872    
     5.29600     0.22310378    
     5.30000     0.22511161    
     5.30400     0.22714258    
     5.30800     0.22919704    
     5.31200     0.23127536    
     5.31600     0.23337792    
     5.32000     0.23550511    
     5.32400     0.23765732    
     5.32800     0.23983495    
     5.33200     0.24203840    
     5.33600     0.24426810    
     5.34000     0.24652446    
     5.34400     0.24880793    
     5.34800     0.25111894    
     5.35200     0.25345796    
     5.35600     0.25582543    
     5.36000     0.25822183    
     5.36400     0.26064765    
     5.36800     0.26310337    
     5.37200     0.26558949    
     5.37600     0.26810653    
     5.38000     0.27065502    
     5.38400     0.27323547    
     5.38800     0.27584845    
     5.39200     0.27849450    
     5.39600     0.28117421    
     5.40000     0.28388814    
     5.40400     0.28663690    
     5.40800     0.28942109    
     5.41200     0.29224134    
     5.41600     0.29509829    
     5.42000     0.29799257    
     5.42400     0.30092486    
     5.42800     0.30389583    
     5.43200     0.30690619    
     5.43600     0.30995663    
     5.44000     0.31304790    
     5.44400     0.31618072    
     5.44800     0.31935587    
     5.45200     0.32257412    
     5.45600     0.32583628    
     5.46000     0.32914314    
     5.46400     0.33249556    
     5.46800     0.33589439    
     5.47200     0.33934049    
     5.47600     0.34283478    
     5.48000     0.34637816    
     5.48400     0.34997158    
     5.48800     0.35361600    
     5.49200     0.35731241    
     5.49600     0.36106181    
     5.50000     0.36486526    
     5.50400     0.36872380    
     5.50800     0.37263853    
     5.51200     0.37661057    
     5.51600     0.38064106    
     5.52000     0.38473117    
     5.52400     0.38888212    
     5.52800     0.39309513    
     5.53200     0.39737147    
     5.53600     0.40171245    
     5.54000     0.40611939    
     5.54400     0.41059368    
     5.54800     0.41513671    
     5.55200     0.41974994    
     5.55600     0.42443484    
     5.56000     0.42919293    
     5.56400     0.43402579    
     5.56800     0.43893502    
     5.57200     0.44392227    
     5.57600     0.44898925    
     5.58000     0.45413768    
     5.58400     0.45936938    
     5.58800     0.46468619    
     5.59200     0.47008999    
     5.59600     0.47558275    
     5.60000     0.48116647    
     5.60400     0.48684322    
     5.60800     0.49261512    
     5.61200     0.49848437    
     5.61600     0.50445322    
     5.62000     0.51052398    
     5.62400     0.51669905    
     5.62800     0.52298088    
     5.63200     0.52937203    
     5.63600     0.53587510    
     5.64000     0.54249278    
     5.64400     0.54922786    
     5.64800     0.55608320    
     5.65200     0.56306176    
     5.65600     0.57016658    
     5.66000     0.57740082    
     5.66400     0.58476771    
     5.66800     0.59227062    
     5.67200     0.59991300    
     5.67600     0.60769843    
     5.68000     0.61563060    
     5.68400     0.62371334    
     5.68800     0.63195058    
     5.69200     0.64034641    
     5.69600     0.64890504    
     5.70000     0.65763085    
     5.70400     0.66652833    
     5.70800     0.67560217    
     5.71200     0.68485721    
     5.71600     0.69429844    
     5.72000     0.70393107    
     5.72400     0.71376046    
     5.72800     0.72379219    
     5.73200     0.73403204    
     5.73600     0.74448598    
     5.74000     0.75516025    
     5.74400     0.76606127    
     5.74800     0.77719576    
     5.75200     0.78857065    
     5.75600     0.80019316    
     5.76000     0.81207080    
     5.76400     0.82421135    
     5.76800     0.83662293    
     5.77200     0.84931396    
     5.77600     0.86229321    
     5.78000     0.87556982    
     5.78400     0.88915329    
     5.78800     0.90305352    
     5.79200     0.91728084    
     5.79600     0.93184600    
     5.80000     0.94676022    
     5.80400     0.96203521    
     5.80800     0.97768319    
     5.81200     0.99371692    
     5.81600      1.0101497    
     5.82000      1.0269956    
     5.82400      1.0442690    
     5.82800      1.0619852    
     5.83200      1.0801602    
     5.83600      1.0988108    
     5.84000      1.1179543    
     5.84400      1.1376092    
     5.84800      1.1577947    
     5.85200      1.1785310    
     5.85600      1.1998394    
     5.86000      1.2217421    
     5.86400      1.2442625    
     5.86800      1.2674253    
     5.87200      1.2912565    
     5.87600      1.3157833    
     5.88000      1.3410346    
     5.88400      1.3670408    
     5.88800      1.3938338    
     5.89200      1.4214475    
     5.89600      1.4499178    
     5.90000      1.4792824    
     5.90400      1.5095815    
     5.90800      1.5408574    
     5.91200      1.5731551    
     5.91600      1.6065225    
     5.92000      1.6410101    
     5.92400      1.6766719    
     5.92800      1.7135652    
     5.93200      1.7517511    
     5.93600      1.7912948    
     5.94000      1.8322658    
     5.94400      1.8747382    
     5.94800      1.9187916    
     5.95200      1.9645109    
     5.95600      2.0119874    
     5.96000      2.0613189    
     5.96400      2.1126107    
     5.96800      2.1659760    
     5.97200      2.2215367    
     5.97600      2.2794248    
     5.98000      2.3397825    
     5.98400      2.4027642    
     5.98800      2.4685372    
     5.99200      2.5372832    
     5.99600      2.6092002    
     6.00000      2.6845041    
     6.00400      2.7634310    
     6.00800      2.8462394    
     6.01200      2.9332135    
     6.01600      3.0246660    
     6.02000      3.1209422    
     6.02400      3.2224246    
     6.02800      3.3295381    
     6.03200      3.4427563    
     6.03600      3.5626097    
     6.04000      3.6896942    
     6.04400      3.8246831    
     6.04800      3.9683410    
     6.05200      4.1215413    
     6.05600      4.2852884    
     6.06000      4.4607458    
     6.06400      4.6492722    
     6.06800      4.8524680    
     6.07200      5.0722361    
     6.07600      5.3108597    
     6.08000      5.5711046    
     6.08400      5.8563508    
     6.08800      6.1707629    
     6.09200      6.5195070    
     6.09600      6.9090258    
     6.10000      7.3473810    
     6.10400      7.8446748    
     6.10800      8.4135563    
     6.11200      9.0698180    
     6.11600      9.8330777    
     6.12000      10.727533    
     6.12400      11.782758    
     6.12800      13.034501    
     6.13200      14.525414    
     6.13600      16.305621    
     6.14000      18.433022    
     6.14400      20.973202    
     6.14800      23.998796    
     6.15200      27.588176    
     6.15600      31.823347    
     6.16000      36.786936    
     6.16400      42.558289    
     6.16800      49.208689    
     6.17200      56.795880    
     6.17600      65.358141    
     6.18000      74.908302    
     6.18400      85.428156    
     6.18800      96.863821    
     6.19200      109.12261    
     6.19600      122.07190    
     6.20000      135.54053    
     6.20400      149.32277    
     6.20800      163.18518    
     6.21200      176.87579    
     6.21600      190.13550    
     6.22000      202.71050    
     6.22400      214.36516    
     6.22800      224.89416    
     6.23200      234.13274    
     6.23600      241.96439    
     6.24000      248.32505    
     6.24400      253.20356    
     6.24800      256.63838    
     6.25200      258.71090    
     6.25600      259.53605    
     6.26000      259.25132    
     6.26400      258.00518    
     6.26800      255.94610    
     6.27200      253.21323    
     6.27600      249.92948    
     6.28000      246.19745    
     6.28400      242.09843    
     6.28800      237.69409    
     6.29200      233.03044    
     6.29600      228.14329    
     6.30000      223.06429    
     6.30400      217.82689    
     6.30800      212.47130    
     6.31200      207.04802    
     6.31600      201.61965    
     6.32000      196.26085    
     6.32400      191.05669    
     6.32800      186.09968    
     6.33200      181.48599    
     6.33600      177.31120    
     6.34000      173.66626    
     6.34400      170.63387    
     6.34800      168.28554    
     6.35200      166.67956    
     6.35600      165.85973    
     6.36000      165.85489    
     6.36400      166.67896    
     6.36800      168.33131    
     6.37200      170.79730    
     6.37600      174.04877    
     6.38000      178.04435    
     6.38400      182.72971    
     6.38800      188.03759    
     6.39200      193.88787    
     6.39600      200.18772    
     6.40000      206.83210    
     6.40400      213.70471    
     6.40800      220.67953    
     6.41200      227.62314    
     6.41600      234.39769    
     6.42000      240.86457    
     6.42400      246.88866    
     6.42800      252.34284    
     6.43200      257.11262    
     6.43600      261.10045    
     6.44000      264.22944    
     6.44400      266.44625    
     6.44800      267.72274    
     6.45200      268.05631    
     6.45600      267.46894    
     6.46000      266.00480    
     6.46400      263.72676    
     6.46800      260.71210    
     6.47200      257.04762    
     6.47600      252.82479    
     6.48000      248.13512    
     6.48400      243.06631    
     6.48800      237.69928    
     6.49200      232.10635    
     6.49600      226.35060    
     6.50000      220.48625    
     6.50400      214.55992    
     6.50800      208.61248    
     6.51200      202.68112    
     6.51600      196.80147    
     6.52000      191.00927    
     6.52400      185.34156    
     6.52800      179.83725    
     6.53200      174.53692    
     6.53600      169.48203    
     6.54000      164.71370    
     6.54400      160.27106    
     6.54800      156.18960    
     6.55200      152.49954    
     6.55600      149.22445    
     6.56000      146.38023    
     6.56400      143.97452    
     6.56800      142.00652    
     6.57200      140.46719    
     6.57600      139.33978    
     6.58000      138.60060    
     6.58400      138.21987    
     6.58800      138.16269    
     6.59200      138.38989    
     6.59600      138.85896    
     6.60000      139.52472    
     6.60400      140.34011    
     6.60800      141.25675    
     6.61200      142.22566    
     6.61600      143.19782    
     6.62000      144.12494    
     6.62400      144.96018    
     6.62800      145.65900    
     6.63200      146.18009    
     6.63600      146.48622    
     6.64000      146.54524    
     6.64400      146.33083    
     6.64800      145.82329    
     6.65200      145.00998    
     6.65600      143.88569    
     6.66000      142.45257    
     6.66400      140.71989    
     6.66800      138.70345    
     6.67200      136.42474    
     6.67600      133.90984    
     6.68000      131.18829    
     6.68400      128.29171    
     6.68800      125.25262    
     6.69200      122.10323    
     6.69600      118.87446    
     6.70000      115.59519    
     6.70400      112.29179    
     6.70800      108.98783    
     6.71200      105.70415    
     6.71600      102.45904    
     6.72000      99.268619    
     6.72400      96.147229    
     6.72800      93.107886    
     6.73200      90.162626    
     6.73600      87.322768    
     6.74000      84.599030    
     6.74400      82.001506    
     6.74800      79.539514    
     6.75200      77.221345    
     6.75600      75.053945    
     6.76000      73.042587    
     6.76400      71.190568    
     6.76800      69.498973    
     6.77200      67.966524    
     6.77600      66.589541    
     6.78000      65.362008    
     6.78400      64.275741    
     6.78800      63.320625    
     6.79200      62.484925    
     6.79600      61.755615    
     6.80000      61.118725    
     6.80400      60.559671    
     6.80800      60.063571    
     6.81200      59.615519    
     6.81600      59.200828    
     6.82000      58.805250    
     6.82400      58.415151    
     6.82800      58.017686    
     6.83200      57.600940    
     6.83600      57.154078    
     6.84000      56.667472    
     6.84400      56.132826    
     6.84800      55.543293    
     6.85200      54.893569    
     6.85600      54.179966    
     6.86000      53.400455    
     6.86400      52.554668    
     6.86800      51.643863    
     6.87200      50.670836    
     6.87600      49.639790    
     6.88000      48.556162    
     6.88400      47.426412    
     6.88800      46.257782    
     6.89200      45.058045    
     6.89600      43.835245    
     6.90000      42.597451    
     6.90400      41.352538    
     6.90800      40.107995    
     6.91200      38.870783    
     6.91600      37.647236    
     6.92000      36.443008    
     6.92400      35.263067    
     6.92800      34.111720    
     6.93200      32.992666    
     6.93600      31.909065    
     6.94000      30.863603    
     6.94400      29.858562    
     6.94800      28.895863    
     6.95200      27.977099    
     6.95600      27.103541    
     6.96000      26.276131    
     6.96400      25.495453    
     6.96800      24.761700    
     6.97200      24.074645    
     6.97600      23.433603    
     6.98000      22.837421    
     6.98400      22.284472    
     6.98800      21.772674    
     6.99200      21.299524    
     6.99600      20.862149    
     7.00000      20.457374    
     7.00400      20.081791    
     7.00800      19.731840    
     7.01200      19.403889    
     7.01600      19.094304    
     7.02000      18.799517    
     7.02400      18.516091    
     7.02800      18.240761    
     7.03200      17.970484    
     7.03600      17.702463    
     7.04000      17.434180    
     7.04400      17.163412    
     7.04800      16.888243    
     7.05200      16.607081    
     7.05600      16.318659    
     7.06000      16.022041    
     7.06400      15.716619    
     7.06800      15.402111    
     7.07200      15.078546    
     7.07600      14.746253    
     7.08000      14.405835    
     7.08400      14.058145    
     7.08800      13.704250    
     7.09200      13.345399    
     7.09600      12.982974    
     7.10000      12.618457    
     7.10400      12.253376    
     7.10800      11.889271    
     7.11200      11.527651    
     7.11600      11.169960    
     7.12000      10.817547    
     7.12400      10.471646    
     7.12800      10.133361    
     7.13200      9.8036535    
     7.13600      9.4833471    
     7.14000      9.1731266    
     7.14400      8.8735469    
     7.14800      8.5850435    
     7.15200      8.3079426    
     7.15600      8.0424725    
     7.16000      7.7887721    
     7.16400      7.5468984    
     7.16800      7.3168311    
     7.17200      7.0984748    
     7.17600      6.8916602    
     7.18000      6.6961434    
     7.18400      6.5116060    
     7.18800      6.3376554    
     7.19200      6.1738272    
     7.19600      6.0195886    
     7.20000      5.8743456    
     7.20400      5.7374511    
     7.20800      5.6082161    
     7.21200      5.4859219    
     7.21600      5.3698333    
     7.22000      5.2592120    
     7.22400      5.1533298    
     7.22800      5.0514807    
     7.23200      4.9529916    
     7.23600      4.8572311    
     7.24000      4.7636173    
     7.24400      4.6716230    
     7.24800      4.5807793    
     7.25200      4.4906786    
     7.25600      4.4009753    
     7.26000      4.3113859    
     7.26400      4.2216885    
     7.26800      4.1317213    
     7.27200      4.0413800    
     7.27600      3.9506157    
     7.28000      3.8594312    
     7.28400      3.7678769    
     7.28800      3.6760469    
     7.29200      3.5840733    
     7.29600      3.4921208    
     7.30000      3.4003810    
     7.30400      3.3090656    
     7.30800      3.2184001    
     7.31200      3.1286174    
     7.31600      3.0399514    
     7.32000      2.9526311    
     7.32400      2.8668752    
     7.32800      2.7828881    
     7.33200      2.7008553    
     7.33600      2.6209414    
     7.34000      2.5432879    
     7.34400      2.4680122    
     7.34800      2.3952082    
     7.35200      2.3249459    
     7.35600      2.2572735    
     7.36000      2.1922184    
     7.36400      2.1297890    
     7.36800      2.0699766    
     7.37200      2.0127570    
     7.37600      1.9580916    
     7.38000      1.9059292    
     7.38400      1.8562064    
     7.38800      1.8088488    
     7.39200      1.7637715    
     7.39600      1.7208800    
     7.40000      1.6800706    
     7.40400      1.6412317    
     7.40800      1.6042446    
     7.41200      1.5689849    
     7.41600      1.5353242    
     7.42000      1.5031315    
     7.42400      1.4722754    
     7.42800      1.4426255    
     7.43200      1.4140550    
     7.43600      1.3864416    
     7.44000      1.3596696    
     7.44400      1.3336311    
     7.44800      1.3082268    
     7.45200      1.2833673    
     7.45600      1.2589732    
     7.46000      1.2349754    
     7.46400      1.2113153    
     7.46800      1.1879446    
     7.47200      1.1648250    
     7.47600      1.1419276    
     7.48000      1.1192327    
     7.48400      1.0967288    
     7.48800      1.0744123    
     7.49200      1.0522862    
     7.49600      1.0303601    
     7.50000      1.0086487    
     7.50400     0.98717129    
     7.50800     0.96595060    
     7.51200     0.94501217    
     7.51600     0.92438331    
     7.52000     0.90409225    
     7.52400     0.88416726    
     7.52800     0.86463593    
     7.53200     0.84552440    
     7.53600     0.82685681    
     7.54000     0.80865470    
     7.54400     0.79093669    
     7.54800     0.77371815    
     7.55200     0.75701106    
     7.55600     0.74082392    
     7.56000     0.72516181    
     7.56400     0.71002653    
     7.56800     0.69541674    
     7.57200     0.68132821    
     7.57600     0.66775411    
     7.58000     0.65468520    
     7.58400     0.64211018    
     7.58800     0.63001585    
     7.59200     0.61838739    
     7.59600     0.60720854    
     7.60000     0.59646178    
     7.60400     0.58612849    
     7.60800     0.57618916    
     7.61200     0.56662348    
     7.61600     0.55741058    
     7.62000     0.54852916    
     7.62400     0.53995776    
     7.62800     0.53167487    
     7.63200     0.52365927    
     7.63600     0.51589014    
     7.64000     0.50834739    
     7.64400     0.50101178    
     7.64800     0.49386514    
     7.65200     0.48689056    
     7.65600     0.48007247    
     7.66000     0.47339677    
     7.66400     0.46685086    
     7.66800     0.46042368    
     7.67200     0.45410571    
     7.67600     0.44788893    
     7.68000     0.44176674    
     7.68400     0.43573390    
     7.68800     0.42978647    
     7.69200     0.42392163    
     7.69600     0.41813763    
     7.70000     0.41243368    
     7.70400     0.40680979    
     7.70800     0.40126667    
     7.71200     0.39580560    
     7.71600     0.39042835    
     7.72000     0.38513699    
     7.72400     0.37993385    
     7.72800     0.37482135    
     7.73200     0.36980194    
     7.73600     0.36487797    
     7.74000     0.36005163    
     7.74400     0.35532487    
     7.74800     0.35069931    
     7.75200     0.34617626    
     7.75600     0.34175658    
     7.76000     0.33744075    
     7.76400     0.33322881    
     7.76800     0.32912039    
     7.77200     0.32511468    
     7.77600     0.32121051    
     7.78000     0.31740632    
     7.78400     0.31370023    
     7.78800     0.31009006    
     7.79200     0.30657336    
     7.79600     0.30314746    
     7.80000     0.29980952    
     7.80400     0.29655650    
     7.80800     0.29338527    
     7.81200     0.29029259    
     7.81600     0.28727514    
     7.82000     0.28432954    
     7.82400     0.28145243    
     7.82800     0.27864040    
     7.83200     0.27589010    
     7.83600     0.27319821    
     7.84000     0.27056148    
     7.84400     0.26797679    
     7.84800     0.26544109    
     7.85200     0.26295151    
     7.85600     0.26050531    
     7.86000     0.25809997    
     7.86400     0.25573311    
     7.86800     0.25340258    
     7.87200     0.25110643    
     7.87600     0.24884291    
     7.88000     0.24661047    
     7.88400     0.24440778    
     7.88800     0.24223367    
     7.89200     0.24008717    
     7.89600     0.23796746    
     7.90000     0.23587388    
     7.90400     0.23380590    
     7.90800     0.23176311    
     7.91200     0.22974521    
     7.91600     0.22775199    
     7.92000     0.22578330    
     7.92400     0.22383907    
     7.92800     0.22191923    
     7.93200     0.22002380    
     7.93600     0.21815277    
     7.94000     0.21630615    
     7.94400     0.21448396    
     7.94800     0.21268617    
     7.95200     0.21091276    
     7.95600     0.20916366    
     7.96000     0.20743877    
     7.96400     0.20573795    
     7.96800     0.20406101    
     7.97200     0.20240773    
     7.97600     0.20077782    
     7.98000     0.19917097    
     7.98400     0.19758683    
     7.98800     0.19602499    
     7.99200     0.19448502    
     7.99600     0.19296646    
     8.00000     0.19146882    
     8.00400     0.18999159    
     8.00800     0.18853424    
     8.01200     0.18709622    
     8.01600     0.18567699    
     8.02000     0.18427598    
     8.02400     0.18289264    
     8.02800     0.18152640    
     8.03200     0.18017672    
     8.03600     0.17884304    
     8.04000     0.17752482    
     8.04400     0.17622154    
     8.04800     0.17493269    
     8.05200     0.17365776    
     8.05600     0.17239629    
     8.06000     0.17114782    
     8.06400     0.16991191    
     8.06800     0.16868816    
     8.07200     0.16747618    
     8.07600     0.16627561    
     8.08000     0.16508612    
     8.08400     0.16390741    
     8.08800     0.16273919    
     8.09200     0.16158121    
     8.09600     0.16043324    
     8.10000     0.15929506    
     8.10400     0.15816649    
     8.10800     0.15704736    
     8.11200     0.15593750    
     8.11600     0.15483679    
     8.12000     0.15374510    
     8.12400     0.15266231    
     8.12800     0.15158832    
     8.13200     0.15052303    
     8.13600     0.14946635    
     8.14000     0.14841820    
     8.14400     0.14737848    
     8.14800     0.14634713    
     8.15200     0.14532406    
     8.15600     0.14430919    
     8.16000     0.14330244    
     8.16400     0.14230371    
     8.16800     0.14131294    
     8.17200     0.14033002    
     8.17600     0.13935486    
     8.18000     0.13838737    
     8.18400     0.13742744    
     8.18800     0.13647497    
     8.19200     0.13552986    
     8.19600     0.13459200    
     8.20000     0.13366127    
     8.20400     0.13273755    
     8.20800     0.13182074    
     8.21200     0.13091071    
     8.21600     0.13000735    
     8.22000     0.12911054    
     8.22400     0.12822015    
     8.22800     0.12733608    
     8.23200     0.12645819    
     8.23600     0.12558639    
     8.24000     0.12472054    
     8.24400     0.12386055    
     8.24800     0.12300630    
     8.25200     0.12215767    
     8.25600     0.12131458    
     8.26000     0.12047691    
     8.26400     0.11964456    
     8.26800     0.11881744    
     8.27200     0.11799546    
     8.27600     0.11717852    
     8.28000     0.11636654    
     8.28400     0.11555943    
     8.28800     0.11475712    
     8.29200     0.11395953    
     8.29600     0.11316659    
     8.30000     0.11237822    
     8.30400     0.11159436    
     8.30800     0.11081496    
     8.31200     0.11003993    
     8.31600     0.10926923    
     8.32000     0.10850281    
     8.32400     0.10774060    
     8.32800     0.10698256    
     8.33200     0.10622863    
     8.33600     0.10547876    
     8.34000     0.10473292    
     8.34400     0.10399104    
     8.34800     0.10325309    
     8.35200     0.10251901    
     8.35600     0.10178878    
     8.36000     0.10106233    
     8.36400     0.10033963    
     8.36800     0.99620636E-01
     8.37200     0.98905303E-01
     8.37600     0.98193589E-01
     8.38000     0.97485450E-01
     8.38400     0.96780845E-01
     8.38800     0.96079730E-01
     8.39200     0.95382063E-01
     8.39600     0.94687802E-01
     8.40000     0.93996903E-01
     8.40400     0.93309325E-01
     8.40800     0.92625025E-01
     8.41200     0.91943961E-01
     8.41600     0.91266092E-01
     8.42000     0.90591374E-01
     8.42400     0.89919768E-01
     8.42800     0.89251231E-01
     8.43200     0.88585723E-01
     8.43600     0.87923203E-01
     8.44000     0.87263631E-01
     8.44400     0.86606969E-01
     8.44800     0.85953176E-01
     8.45200     0.85302213E-01
     8.45600     0.84654044E-01
     8.46000     0.84008630E-01
     8.46400     0.83365934E-01
     8.46800     0.82725920E-01
     8.47200     0.82088552E-01
     8.47600     0.81453794E-01
     8.48000     0.80821613E-01
     8.48400     0.80191973E-01
     8.48800     0.79564842E-01
     8.49200     0.78940186E-01
     8.49600     0.78317973E-01
     8.50000     0.77698172E-01
     8.50400     0.77080750E-01
     8.50800     0.76465678E-01
     8.51200     0.75852925E-01
     8.51600     0.75242461E-01
     8.52000     0.74634257E-01
     8.52400     0.74028285E-01
     8.52800     0.73424516E-01
     8.53200     0.72822922E-01
     8.53600     0.72223476E-01
     8.54000     0.71626150E-01
     8.54400     0.71030918E-01
     8.54800     0.70437753E-01
     8.55200     0.69846628E-01
     8.55600     0.69257519E-01
     8.56000     0.68670398E-01
     8.56400     0.68085241E-01
     8.56800     0.67502022E-01
     8.57200     0.66920716E-01
     8.57600     0.66341298E-01
     8.58000     0.65763744E-01
     8.58400     0.65188029E-01
     8.58800     0.64614128E-01
     8.59200     0.64042018E-01
     8.59600     0.63471675E-01
     8.60000     0.62903074E-01
     8.60400     0.62336192E-01
     8.60800     0.61771005E-01
     8.61200     0.61207490E-01
     8.61600     0.60645624E-01
     8.62000     0.60085383E-01
     8.62400     0.59526745E-01
     8.62800     0.58969687E-01
     8.63200     0.58414187E-01
     8.63600     0.57860220E-01
     8.64000     0.57307767E-01
     8.64400     0.56756804E-01
     8.64800     0.56207309E-01
     8.65200     0.55659260E-01
     8.65600     0.55112637E-01
     8.66000     0.54567417E-01
     8.66400     0.54023579E-01
     8.66800     0.53481102E-01
     8.67200     0.52939964E-01
     8.67600     0.52400146E-01
     8.68000     0.51861627E-01
     8.68400     0.51324385E-01
     8.68800     0.50788401E-01
     8.69200     0.50253654E-01
     8.69600     0.49720125E-01
     8.70000     0.49187793E-01
     8.70400     0.48656639E-01
     8.70800     0.48126643E-01
     8.71200     0.47597786E-01
     8.71600     0.47070048E-01
     8.72000     0.46543411E-01
     8.72400     0.46017855E-01
     8.72800     0.45493361E-01
     8.73200     0.44969910E-01
     8.73600     0.44447485E-01
     8.74000     0.43926066E-01
     8.74400     0.43405635E-01
     8.74800     0.42886173E-01
     8.75200     0.42367663E-01
     8.75600     0.41850086E-01
     8.76000     0.41333424E-01
     8.76400     0.40817660E-01
     8.76800     0.40302775E-01
     8.77200     0.39788752E-01
     8.77600     0.39275573E-01
     8.78000     0.38763220E-01
     8.78400     0.38251677E-01
     8.78800     0.37740926E-01
     8.79200     0.37230949E-01
     8.79600     0.36721729E-01
     8.80000     0.36213249E-01
     8.80400     0.35705491E-01
     8.80800     0.35198440E-01
     8.81200     0.34692078E-01
     8.81600     0.34186387E-01
     8.82000     0.33681352E-01
     8.82400     0.33176955E-01
     8.82800     0.32673180E-01
     8.83200     0.32170010E-01
     8.83600     0.31667428E-01
     8.84000     0.31165419E-01
     8.84400     0.30663964E-01
     8.84800     0.30163049E-01
     8.85200     0.29662657E-01
     8.85600     0.29162771E-01
     8.86000     0.28663376E-01
     8.86400     0.28164454E-01
     8.86800     0.27665990E-01
     8.87200     0.27167968E-01
     8.87600     0.26670372E-01
     8.88000     0.26173186E-01
     8.88400     0.25676394E-01
     8.88800     0.25179979E-01
     8.89200     0.24683927E-01
     8.89600     0.24188221E-01
     8.90000     0.23692845E-01
     8.90400     0.23197785E-01
     8.90800     0.22703023E-01
     8.91200     0.22208545E-01
     8.91600     0.21714335E-01
     8.92000     0.21220377E-01
     8.92400     0.20726656E-01
     8.92800     0.20233156E-01
     8.93200     0.19739862E-01
     8.93600     0.19246758E-01
     8.94000     0.18753829E-01
     8.94400     0.18261059E-01
     8.94800     0.17768434E-01
     8.95200     0.17275937E-01
     8.95600     0.16783553E-01
     8.96000     0.16291268E-01
     8.96400     0.15799065E-01
     8.96800     0.15306930E-01
     8.97200     0.14814846E-01
     8.97600     0.14322800E-01
     8.98000     0.13830776E-01
     8.98400     0.13338758E-01
     8.98800     0.12846731E-01
     8.99200     0.12354680E-01
     8.99600     0.11862590E-01
     9.00000     0.11370446E-01
