     4.00000     0.28071654E-03
     4.01200     0.30655508E-03
     4.02400     0.33247747E-03
     4.03600     0.35849119E-03
     4.04800     0.38460377E-03
     4.06000     0.41082280E-03
     4.07200     0.43715597E-03
     4.08400     0.46361101E-03
     4.09600     0.49019577E-03
     4.10800     0.51691818E-03
     4.12000     0.54378626E-03
     4.13200     0.57080814E-03
     4.14400     0.59799208E-03
     4.15600     0.62534641E-03
     4.16800     0.65287963E-03
     4.18000     0.68060035E-03
     4.19200     0.70851732E-03
     4.20400     0.73663943E-03
     4.21600     0.76497574E-03
     4.22800     0.79353544E-03
     4.24000     0.82232792E-03
     4.25200     0.85136272E-03
     4.26400     0.88064959E-03
     4.27600     0.91019845E-03
     4.28800     0.94001944E-03
     4.30000     0.97012290E-03
     4.31200     0.10005194E-02
     4.32400     0.10312197E-02
     4.33600     0.10622349E-02
     4.34800     0.10935763E-02
     4.36000     0.11252554E-02
     4.37200     0.11572840E-02
     4.38400     0.11896743E-02
     4.39600     0.12224387E-02
     4.40800     0.12555899E-02
     4.42000     0.12891410E-02
     4.43200     0.13231053E-02
     4.44400     0.13574967E-02
     4.45600     0.13923292E-02
     4.46800     0.14276173E-02
     4.48000     0.14633760E-02
     4.49200     0.14996206E-02
     4.50400     0.15363669E-02
     4.51600     0.15736310E-02
     4.52800     0.16114298E-02
     4.54000     0.16497803E-02
     4.55200     0.16887003E-02
     4.56400     0.17282081E-02
     4.57600     0.17683225E-02
     4.58800     0.18090630E-02
     4.60000     0.18504494E-02
     4.61200     0.18925026E-02
     4.62400     0.19352439E-02
     4.63600     0.19786952E-02
     4.64800     0.20228795E-02
     4.66000     0.20678203E-02
     4.67200     0.21135419E-02
     4.68400     0.21600694E-02
     4.69600     0.22074291E-02
     4.70800     0.22556477E-02
     4.72000     0.23047534E-02
     4.73200     0.23547750E-02
     4.74400     0.24057426E-02
     4.75600     0.24576872E-02
     4.76800     0.25106411E-02
     4.78000     0.25646378E-02
     4.79200     0.26197119E-02
     4.80400     0.26758996E-02
     4.81600     0.27332383E-02
     4.82800     0.27917670E-02
     4.84000     0.28515260E-02
     4.85200     0.29125574E-02
     4.86400     0.29749051E-02
     4.87600     0.30386146E-02
     4.88800     0.31037332E-02
     4.90000     0.31703105E-02
     4.91200     0.32383978E-02
     4.92400     0.33080489E-02
     4.93600     0.33793196E-02
     4.94800     0.34522685E-02
     4.96000     0.35269565E-02
     4.97200     0.36034471E-02
     4.98400     0.36818070E-02
     4.99600     0.37621057E-02
     5.00800     0.38444158E-02
     5.02000     0.39288135E-02
     5.03200     0.40153783E-02
     5.04400     0.41041938E-02
     5.05600     0.41953472E-02
     5.06800     0.42889302E-02
     5.08000     0.43850389E-02
     5.09200     0.44837743E-02
     5.10400     0.45852421E-02
     5.11600     0.46895538E-02
     5.12800     0.47968263E-02
     5.14000     0.49071827E-02
     5.15200     0.50207526E-02
     5.16400     0.51376725E-02
     5.17600     0.52580861E-02
     5.18800     0.53821451E-02
     5.20000     0.55100096E-02
     5.21200     0.56418485E-02
     5.22400     0.57778405E-02
     5.23600     0.59181744E-02
     5.24800     0.60630501E-02
     5.26000     0.62126793E-02
     5.27200     0.63672863E-02
     5.28400     0.65271092E-02
     5.29600     0.66924006E-02
     5.30800     0.68634291E-02
     5.32000     0.70404802E-02
     5.33200     0.72238578E-02
     5.34400     0.74138859E-02
     5.35600     0.76109098E-02
     5.36800     0.78152984E-02
     5.38000     0.80274458E-02
     5.39200     0.82477735E-02
     5.40400     0.84767334E-02
     5.41600     0.87148096E-02
     5.42800     0.89625223E-02
     5.44000     0.92204303E-02
     5.45200     0.94891355E-02
     5.46400     0.97692864E-02
     5.47600     0.10061583E-01
     5.48800     0.10366783E-01
     5.50000     0.10685705E-01
     5.51200     0.11019238E-01
     5.52400     0.11368349E-01
     5.53600     0.11734088E-01
     5.54800     0.12117602E-01
     5.56000     0.12520145E-01
     5.57200     0.12943089E-01
     5.58400     0.13387940E-01
     5.59600     0.13856358E-01
     5.60800     0.14350173E-01
     5.62000     0.14871411E-01
     5.63200     0.15422321E-01
     5.64400     0.16005410E-01
     5.65600     0.16623482E-01
     5.66800     0.17279686E-01
     5.68000     0.17977573E-01
     5.69200     0.18721172E-01
     5.70400     0.19515075E-01
     5.71600     0.20364548E-01
     5.72800     0.21275670E-01
     5.74000     0.22255504E-01
     5.75200     0.23312315E-01
     5.76400     0.24455844E-01
     5.77600     0.25697654E-01
     5.78800     0.27051561E-01
     5.80000     0.28534175E-01
     5.81200     0.30165571E-01
     5.82400     0.31970107E-01
     5.83600     0.33977419E-01
     5.84800     0.36223605E-01
     5.86000     0.38752611E-01
     5.87200     0.41617818E-01
     5.88400     0.44883800E-01
     5.89600     0.48628228E-01
     5.90800     0.52943819E-01
     5.92000     0.57940228E-01
     5.93200     0.63745724E-01
     5.94400     0.70508431E-01
     5.95600     0.78396913E-01
     5.96800     0.87599798E-01
     5.98000     0.98324170E-01
     5.99200     0.11079243    
     6.00400     0.12523740    
     6.01600     0.14189547    
     6.02800     0.16099782    
     6.04000     0.18275976    
     6.05200     0.20736850    
     6.06400     0.23496992    
     6.07600     0.26565505    
     6.08800     0.29944705    
     6.10000     0.33628991    
     6.11200     0.37603982    
     6.12400     0.41846020    
     6.13600     0.46322142    
     6.14800     0.50990565    
     6.16000     0.55801714    
     6.17200     0.60699767    
     6.18400     0.65624652    
     6.19600     0.70514371    
     6.20800     0.75307508    
     6.22000     0.79945739    
     6.23200     0.84376149    
     6.24400     0.88553179    
     6.25600     0.92440059    
     6.26800     0.96009607    
     6.28000     0.99244356    
     6.29200      1.0213601    
     6.30400      1.0468432    
     6.31600      1.0689549    
     6.32800      1.0878032    
     6.34000      1.1035225    
     6.35200      1.1162550    
     6.36400      1.1261351    
     6.37600      1.1332777    
     6.38800      1.1377721    
     6.40000      1.1396803    
     6.41200      1.1390405    
     6.42400      1.1358753    
     6.43600      1.1302010    
     6.44800      1.1220398    
     6.46000      1.1114303    
     6.47200      1.0984368    
     6.48400      1.0831561    
     6.49600      1.0657198    
     6.50800      1.0462936    
     6.52000      1.0250731    
     6.53200      1.0022764    
     6.54400     0.97813484    
     6.55600     0.95288309    
     6.56800     0.92674939    
     6.58000     0.89994700    
     6.59200     0.87266770    
     6.60400     0.84507773    
     6.61600     0.81731637    
     6.62800     0.78949694    
     6.64000     0.76170987    
     6.65200     0.73402713    
     6.66400     0.70650745    
     6.67600     0.67920155    
     6.68800     0.65215679    
     6.70000     0.62542079    
     6.71200     0.59904369    
     6.72400     0.57307910    
     6.73600     0.54758357    
     6.74800     0.52261521    
     6.76000     0.49823139    
     6.77200     0.47448626    
     6.78400     0.45142825    
     6.79600     0.42909796    
     6.80800     0.40752669    
     6.82000     0.38673569    
     6.83200     0.36673621    
     6.84400     0.34753022    
     6.85600     0.32911177    
     6.86800     0.31146859    
     6.88000     0.29458392    
     6.89200     0.27843827    
     6.90400     0.26301094    
     6.91600     0.24828126    
     6.92800     0.23422934    
     6.94000     0.22083647    
     6.95200     0.20808520    
     6.96400     0.19595903    
     6.97600     0.18444200    
     6.98800     0.17351819    
     7.00000     0.16317116    
     7.01200     0.15338362    
     7.02400     0.14413710    
     7.03600     0.13541188    
     7.04800     0.12718707    
     7.06000     0.11944082    
     7.07200     0.11215063    
     7.08400     0.10529373    
     7.09600     0.98847498E-01
     7.10800     0.92789788E-01
     7.12000     0.87099241E-01
     7.13200     0.81755496E-01
     7.14400     0.76739311E-01
     7.15600     0.72032593E-01
     7.16800     0.67618367E-01
     7.18000     0.63480677E-01
     7.19200     0.59604460E-01
     7.20400     0.55975415E-01
     7.21600     0.52579873E-01
     7.22800     0.49404691E-01
     7.24000     0.46437180E-01
     7.25200     0.43665060E-01
     7.26400     0.41076452E-01
     7.27600     0.38659889E-01
     7.28800     0.36404351E-01
     7.30000     0.34299302E-01
     7.31200     0.32334729E-01
     7.32400     0.30501173E-01
     7.33600     0.28789751E-01
     7.34800     0.27192157E-01
     7.36000     0.25700654E-01
     7.37200     0.24308049E-01
     7.38400     0.23007661E-01
     7.39600     0.21793280E-01
     7.40800     0.20659119E-01
     7.42000     0.19599781E-01
     7.43200     0.18610211E-01
     7.44400     0.17685667E-01
     7.45600     0.16821694E-01
     7.46800     0.16014099E-01
     7.48000     0.15258941E-01
     7.49200     0.14552517E-01
     7.50400     0.13891355E-01
     7.51600     0.13272208E-01
     7.52800     0.12692048E-01
     7.54000     0.12148061E-01
     7.55200     0.11637636E-01
     7.56400     0.11158356E-01
     7.57600     0.10707990E-01
     7.58800     0.10284476E-01
     7.60000     0.98859125E-02
     7.61200     0.95105411E-02
     7.62400     0.91567367E-02
     7.63600     0.88229945E-02
     7.64800     0.85079190E-02
     7.66000     0.82102147E-02
     7.67200     0.79286778E-02
     7.68400     0.76621891E-02
     7.69600     0.74097085E-02
     7.70800     0.71702695E-02
     7.72000     0.69429748E-02
     7.73200     0.67269927E-02
     7.74400     0.65215528E-02
     7.75600     0.63259424E-02
     7.76800     0.61395031E-02
     7.78000     0.59616267E-02
     7.79200     0.57917518E-02
     7.80400     0.56293600E-02
     7.81600     0.54739725E-02
     7.82800     0.53251466E-02
     7.84000     0.51824726E-02
     7.85200     0.50455709E-02
     7.86400     0.49140897E-02
     7.87600     0.47877023E-02
     7.88800     0.46661049E-02
     7.90000     0.45490155E-02
     7.91200     0.44361717E-02
     7.92400     0.43273293E-02
     7.93600     0.42222613E-02
     7.94800     0.41207565E-02
     7.96000     0.40226184E-02
     7.97200     0.39276642E-02
     7.98400     0.38357237E-02
     7.99600     0.37466387E-02
     8.00800     0.36602616E-02
     8.02000     0.35764548E-02
     8.03200     0.34950899E-02
     8.04400     0.34160471E-02
     8.05600     0.33392140E-02
     8.06800     0.32644857E-02
     8.08000     0.31917637E-02
     8.09200     0.31209554E-02
     8.10400     0.30519742E-02
     8.11600     0.29847382E-02
     8.12800     0.29191706E-02
     8.14000     0.28551992E-02
     8.15200     0.27927555E-02
     8.16400     0.27317753E-02
     8.17600     0.26721977E-02
     8.18800     0.26139655E-02
     8.20000     0.25570243E-02
     8.21200     0.25013227E-02
     8.22400     0.24468121E-02
     8.23600     0.23934463E-02
     8.24800     0.23411815E-02
     8.26000     0.22899760E-02
     8.27200     0.22397903E-02
     8.28400     0.21905866E-02
     8.29600     0.21423290E-02
     8.30800     0.20949832E-02
     8.32000     0.20485163E-02
     8.33200     0.20028972E-02
     8.34400     0.19580958E-02
     8.35600     0.19140834E-02
     8.36800     0.18708327E-02
     8.38000     0.18283173E-02
     8.39200     0.17865118E-02
     8.40400     0.17453920E-02
     8.41600     0.17049347E-02
     8.42800     0.16651173E-02
     8.44000     0.16259183E-02
     8.45200     0.15873168E-02
     8.46400     0.15492929E-02
     8.47600     0.15118272E-02
     8.48800     0.14749010E-02
     8.50000     0.14384963E-02
     8.51200     0.14025957E-02
     8.52400     0.13671822E-02
     8.53600     0.13322397E-02
     8.54800     0.12977522E-02
     8.56000     0.12637045E-02
     8.57200     0.12300816E-02
     8.58400     0.11968693E-02
     8.59600     0.11640534E-02
     8.60800     0.11316203E-02
     8.62000     0.10995570E-02
     8.63200     0.10678504E-02
     8.64400     0.10364881E-02
     8.65600     0.10054579E-02
     8.66800     0.97474783E-03
     8.68000     0.94434641E-03
     8.69200     0.91424229E-03
     8.70400     0.88442445E-03
     8.71600     0.85488209E-03
     8.72800     0.82560469E-03
     8.74000     0.79658194E-03
     8.75200     0.76780375E-03
     8.76400     0.73926025E-03
     8.77600     0.71094176E-03
     8.78800     0.68283879E-03
     8.80000     0.65494205E-03
     8.81200     0.62724239E-03
     8.82400     0.59973083E-03
     8.83600     0.57239858E-03
     8.84800     0.54523694E-03
     8.86000     0.51823738E-03
     8.87200     0.49139150E-03
     8.88400     0.46469101E-03
     8.89600     0.43812775E-03
     8.90800     0.41169366E-03
     8.92000     0.38538078E-03
     8.93200     0.35918126E-03
     8.94400     0.33308730E-03
     8.95600     0.30709124E-03
     8.96800     0.28118545E-03
     8.98000     0.25536239E-03
     8.99200     0.22961459E-03
     9.00400     0.20393462E-03
