     4.00000     0.65955183E-04
     4.00400     0.68103889E-04
     4.00800     0.70254640E-04
     4.01200     0.72407505E-04
     4.01600     0.74562550E-04
     4.02000     0.76719846E-04
     4.02400     0.78879459E-04
     4.02800     0.81041458E-04
     4.03200     0.83205913E-04
     4.03600     0.85372891E-04
     4.04000     0.87542463E-04
     4.04400     0.89714698E-04
     4.04800     0.91889664E-04
     4.05200     0.94067432E-04
     4.05600     0.96248071E-04
     4.06000     0.98431652E-04
     4.06400     0.10061825E-03
     4.06800     0.10280792E-03
     4.07200     0.10500075E-03
     4.07600     0.10719680E-03
     4.08000     0.10939615E-03
     4.08400     0.11159887E-03
     4.08800     0.11380503E-03
     4.09200     0.11601469E-03
     4.09600     0.11822795E-03
     4.10000     0.12044485E-03
     4.10400     0.12266549E-03
     4.10800     0.12488993E-03
     4.11200     0.12711824E-03
     4.11600     0.12935051E-03
     4.12000     0.13158680E-03
     4.12400     0.13382718E-03
     4.12800     0.13607174E-03
     4.13200     0.13832055E-03
     4.13600     0.14057368E-03
     4.14000     0.14283122E-03
     4.14400     0.14509322E-03
     4.14800     0.14735978E-03
     4.15200     0.14963097E-03
     4.15600     0.15190686E-03
     4.16000     0.15418754E-03
     4.16400     0.15647308E-03
     4.16800     0.15876355E-03
     4.17200     0.16105905E-03
     4.17600     0.16335964E-03
     4.18000     0.16566541E-03
     4.18400     0.16797644E-03
     4.18800     0.17029281E-03
     4.19200     0.17261459E-03
     4.19600     0.17494187E-03
     4.20000     0.17727474E-03
     4.20400     0.17961327E-03
     4.20800     0.18195754E-03
     4.21200     0.18430764E-03
     4.21600     0.18666366E-03
     4.22000     0.18902567E-03
     4.22400     0.19139377E-03
     4.22800     0.19376803E-03
     4.23200     0.19614854E-03
     4.23600     0.19853539E-03
     4.24000     0.20092866E-03
     4.24400     0.20332844E-03
     4.24800     0.20573483E-03
     4.25200     0.20814790E-03
     4.25600     0.21056775E-03
     4.26000     0.21299446E-03
     4.26400     0.21542813E-03
     4.26800     0.21786884E-03
     4.27200     0.22031669E-03
     4.27600     0.22277177E-03
     4.28000     0.22523418E-03
     4.28400     0.22770399E-03
     4.28800     0.23018131E-03
     4.29200     0.23266623E-03
     4.29600     0.23515885E-03
     4.30000     0.23765926E-03
     4.30400     0.24016756E-03
     4.30800     0.24268385E-03
     4.31200     0.24520821E-03
     4.31600     0.24774076E-03
     4.32000     0.25028159E-03
     4.32400     0.25283079E-03
     4.32800     0.25538848E-03
     4.33200     0.25795474E-03
     4.33600     0.26052969E-03
     4.34000     0.26311342E-03
     4.34400     0.26570604E-03
     4.34800     0.26830766E-03
     4.35200     0.27091837E-03
     4.35600     0.27353828E-03
     4.36000     0.27616751E-03
     4.36400     0.27880615E-03
     4.36800     0.28145432E-03
     4.37200     0.28411212E-03
     4.37600     0.28677967E-03
     4.38000     0.28945707E-03
     4.38400     0.29214444E-03
     4.38800     0.29484189E-03
     4.39200     0.29754954E-03
     4.39600     0.30026749E-03
     4.40000     0.30299586E-03
     4.40400     0.30573478E-03
     4.40800     0.30848435E-03
     4.41200     0.31124470E-03
     4.41600     0.31401594E-03
     4.42000     0.31679820E-03
     4.42400     0.31959160E-03
     4.42800     0.32239625E-03
     4.43200     0.32521229E-03
     4.43600     0.32803983E-03
     4.44000     0.33087901E-03
     4.44400     0.33372994E-03
     4.44800     0.33659276E-03
     4.45200     0.33946760E-03
     4.45600     0.34235459E-03
     4.46000     0.34525385E-03
     4.46400     0.34816552E-03
     4.46800     0.35108974E-03
     4.47200     0.35402663E-03
     4.47600     0.35697634E-03
     4.48000     0.35993900E-03
     4.48400     0.36291474E-03
     4.48800     0.36590372E-03
     4.49200     0.36890607E-03
     4.49600     0.37192194E-03
     4.50000     0.37495146E-03
     4.50400     0.37799478E-03
     4.50800     0.38105205E-03
     4.51200     0.38412342E-03
     4.51600     0.38720903E-03
     4.52000     0.39030904E-03
     4.52400     0.39342360E-03
     4.52800     0.39655286E-03
     4.53200     0.39969698E-03
     4.53600     0.40285612E-03
     4.54000     0.40603042E-03
     4.54400     0.40922006E-03
     4.54800     0.41242519E-03
     4.55200     0.41564597E-03
     4.55600     0.41888258E-03
     4.56000     0.42213517E-03
     4.56400     0.42540392E-03
     4.56800     0.42868899E-03
     4.57200     0.43199056E-03
     4.57600     0.43530880E-03
     4.58000     0.43864387E-03
     4.58400     0.44199597E-03
     4.58800     0.44536527E-03
     4.59200     0.44875194E-03
     4.59600     0.45215617E-03
     4.60000     0.45557815E-03
     4.60400     0.45901805E-03
     4.60800     0.46247607E-03
     4.61200     0.46595240E-03
     4.61600     0.46944723E-03
     4.62000     0.47296075E-03
     4.62400     0.47649316E-03
     4.62800     0.48004465E-03
     4.63200     0.48361543E-03
     4.63600     0.48720570E-03
     4.64000     0.49081566E-03
     4.64400     0.49444552E-03
     4.64800     0.49809549E-03
     4.65200     0.50176578E-03
     4.65600     0.50545660E-03
     4.66000     0.50916817E-03
     4.66400     0.51290071E-03
     4.66800     0.51665443E-03
     4.67200     0.52042956E-03
     4.67600     0.52422633E-03
     4.68000     0.52804496E-03
     4.68400     0.53188569E-03
     4.68800     0.53574875E-03
     4.69200     0.53963436E-03
     4.69600     0.54354278E-03
     4.70000     0.54747425E-03
     4.70400     0.55142899E-03
     4.70800     0.55540728E-03
     4.71200     0.55940934E-03
     4.71600     0.56343545E-03
     4.72000     0.56748584E-03
     4.72400     0.57156079E-03
     4.72800     0.57566054E-03
     4.73200     0.57978537E-03
     4.73600     0.58393554E-03
     4.74000     0.58811133E-03
     4.74400     0.59231301E-03
     4.74800     0.59654085E-03
     4.75200     0.60079514E-03
     4.75600     0.60507615E-03
     4.76000     0.60938419E-03
     4.76400     0.61371953E-03
     4.76800     0.61808247E-03
     4.77200     0.62247331E-03
     4.77600     0.62689235E-03
     4.78000     0.63133990E-03
     4.78400     0.63581626E-03
     4.78800     0.64032176E-03
     4.79200     0.64485669E-03
     4.79600     0.64942139E-03
     4.80000     0.65401618E-03
     4.80400     0.65864138E-03
     4.80800     0.66329734E-03
     4.81200     0.66798438E-03
     4.81600     0.67270285E-03
     4.82000     0.67745309E-03
     4.82400     0.68223545E-03
     4.82800     0.68705029E-03
     4.83200     0.69189796E-03
     4.83600     0.69677883E-03
     4.84000     0.70169327E-03
     4.84400     0.70664164E-03
     4.84800     0.71162433E-03
     4.85200     0.71664171E-03
     4.85600     0.72169418E-03
     4.86000     0.72678213E-03
     4.86400     0.73190595E-03
     4.86800     0.73706604E-03
     4.87200     0.74226282E-03
     4.87600     0.74749670E-03
     4.88000     0.75276809E-03
     4.88400     0.75807742E-03
     4.88800     0.76342512E-03
     4.89200     0.76881163E-03
     4.89600     0.77423739E-03
     4.90000     0.77970284E-03
     4.90400     0.78520843E-03
     4.90800     0.79075464E-03
     4.91200     0.79634191E-03
     4.91600     0.80197074E-03
     4.92000     0.80764158E-03
     4.92400     0.81335494E-03
     4.92800     0.81911130E-03
     4.93200     0.82491116E-03
     4.93600     0.83075502E-03
     4.94000     0.83664340E-03
     4.94400     0.84257683E-03
     4.94800     0.84855581E-03
     4.95200     0.85458090E-03
     4.95600     0.86065263E-03
     4.96000     0.86677155E-03
     4.96400     0.87293822E-03
     4.96800     0.87915321E-03
     4.97200     0.88541708E-03
     4.97600     0.89173043E-03
     4.98000     0.89809384E-03
     4.98400     0.90450790E-03
     4.98800     0.91097324E-03
     4.99200     0.91749045E-03
     4.99600     0.92406018E-03
     5.00000     0.93068305E-03
     5.00400     0.93735970E-03
     5.00800     0.94409080E-03
     5.01200     0.95087700E-03
     5.01600     0.95771897E-03
     5.02000     0.96461740E-03
     5.02400     0.97157298E-03
     5.02800     0.97858642E-03
     5.03200     0.98565843E-03
     5.03600     0.99278972E-03
     5.04000     0.99998105E-03
     5.04400     0.10072332E-02
     5.04800     0.10145468E-02
     5.05200     0.10219227E-02
     5.05600     0.10293617E-02
     5.06000     0.10368646E-02
     5.06400     0.10444322E-02
     5.06800     0.10520653E-02
     5.07200     0.10597647E-02
     5.07600     0.10675313E-02
     5.08000     0.10753660E-02
     5.08400     0.10832695E-02
     5.08800     0.10912429E-02
     5.09200     0.10992869E-02
     5.09600     0.11074025E-02
     5.10000     0.11155907E-02
     5.10400     0.11238523E-02
     5.10800     0.11321884E-02
     5.11200     0.11405998E-02
     5.11600     0.11490877E-02
     5.12000     0.11576530E-02
     5.12400     0.11662966E-02
     5.12800     0.11750198E-02
     5.13200     0.11838234E-02
     5.13600     0.11927087E-02
     5.14000     0.12016766E-02
     5.14400     0.12107282E-02
     5.14800     0.12198648E-02
     5.15200     0.12290875E-02
     5.15600     0.12383974E-02
     5.16000     0.12477957E-02
     5.16400     0.12572836E-02
     5.16800     0.12668623E-02
     5.17200     0.12765331E-02
     5.17600     0.12862972E-02
     5.18000     0.12961560E-02
     5.18400     0.13061108E-02
     5.18800     0.13161628E-02
     5.19200     0.13263135E-02
     5.19600     0.13365642E-02
     5.20000     0.13469163E-02
     5.20400     0.13573713E-02
     5.20800     0.13679306E-02
     5.21200     0.13785957E-02
     5.21600     0.13893681E-02
     5.22000     0.14002493E-02
     5.22400     0.14112409E-02
     5.22800     0.14223445E-02
     5.23200     0.14335617E-02
     5.23600     0.14448942E-02
     5.24000     0.14563436E-02
     5.24400     0.14679117E-02
     5.24800     0.14796001E-02
     5.25200     0.14914107E-02
     5.25600     0.15033452E-02
     5.26000     0.15154056E-02
     5.26400     0.15275936E-02
     5.26800     0.15399112E-02
     5.27200     0.15523603E-02
     5.27600     0.15649429E-02
     5.28000     0.15776611E-02
     5.28400     0.15905168E-02
     5.28800     0.16035123E-02
     5.29200     0.16166495E-02
     5.29600     0.16299307E-02
     5.30000     0.16433582E-02
     5.30400     0.16569341E-02
     5.30800     0.16706608E-02
     5.31200     0.16845407E-02
     5.31600     0.16985761E-02
     5.32000     0.17127695E-02
     5.32400     0.17271234E-02
     5.32800     0.17416403E-02
     5.33200     0.17563228E-02
     5.33600     0.17711736E-02
     5.34000     0.17861954E-02
     5.34400     0.18013909E-02
     5.34800     0.18167630E-02
     5.35200     0.18323146E-02
     5.35600     0.18480484E-02
     5.36000     0.18639677E-02
     5.36400     0.18800753E-02
     5.36800     0.18963745E-02
     5.37200     0.19128684E-02
     5.37600     0.19295603E-02
     5.38000     0.19464534E-02
     5.38400     0.19635512E-02
     5.38800     0.19808572E-02
     5.39200     0.19983748E-02
     5.39600     0.20161078E-02
     5.40000     0.20340597E-02
     5.40400     0.20522344E-02
     5.40800     0.20706357E-02
     5.41200     0.20892676E-02
     5.41600     0.21081341E-02
     5.42000     0.21272393E-02
     5.42400     0.21465875E-02
     5.42800     0.21661828E-02
     5.43200     0.21860298E-02
     5.43600     0.22061330E-02
     5.44000     0.22264969E-02
     5.44400     0.22471263E-02
     5.44800     0.22680259E-02
     5.45200     0.22892008E-02
     5.45600     0.23106559E-02
     5.46000     0.23323965E-02
     5.46400     0.23544278E-02
     5.46800     0.23767552E-02
     5.47200     0.23993843E-02
     5.47600     0.24223207E-02
     5.48000     0.24455703E-02
     5.48400     0.24691390E-02
     5.48800     0.24930329E-02
     5.49200     0.25172583E-02
     5.49600     0.25418215E-02
     5.50000     0.25667291E-02
     5.50400     0.25919878E-02
     5.50800     0.26176046E-02
     5.51200     0.26435864E-02
     5.51600     0.26699405E-02
     5.52000     0.26966744E-02
     5.52400     0.27237956E-02
     5.52800     0.27513119E-02
     5.53200     0.27792315E-02
     5.53600     0.28075624E-02
     5.54000     0.28363131E-02
     5.54400     0.28654923E-02
     5.54800     0.28951089E-02
     5.55200     0.29251719E-02
     5.55600     0.29556907E-02
     5.56000     0.29866751E-02
     5.56400     0.30181347E-02
     5.56800     0.30500799E-02
     5.57200     0.30825209E-02
     5.57600     0.31154686E-02
     5.58000     0.31489339E-02
     5.58400     0.31829282E-02
     5.58800     0.32174631E-02
     5.59200     0.32525505E-02
     5.59600     0.32882028E-02
     5.60000     0.33244326E-02
     5.60400     0.33612530E-02
     5.60800     0.33986774E-02
     5.61200     0.34367195E-02
     5.61600     0.34753936E-02
     5.62000     0.35147143E-02
     5.62400     0.35546967E-02
     5.62800     0.35953563E-02
     5.63200     0.36367090E-02
     5.63600     0.36787714E-02
     5.64000     0.37215604E-02
     5.64400     0.37650935E-02
     5.64800     0.38093887E-02
     5.65200     0.38544648E-02
     5.65600     0.39003409E-02
     5.66000     0.39470367E-02
     5.66400     0.39945728E-02
     5.66800     0.40429703E-02
     5.67200     0.40922509E-02
     5.67600     0.41424372E-02
     5.68000     0.41935524E-02
     5.68400     0.42456205E-02
     5.68800     0.42986663E-02
     5.69200     0.43527156E-02
     5.69600     0.44077949E-02
     5.70000     0.44639316E-02
     5.70400     0.45211540E-02
     5.70800     0.45794917E-02
     5.71200     0.46389751E-02
     5.71600     0.46996355E-02
     5.72000     0.47615057E-02
     5.72400     0.48246195E-02
     5.72800     0.48890119E-02
     5.73200     0.49547191E-02
     5.73600     0.50217789E-02
     5.74000     0.50902303E-02
     5.74400     0.51601138E-02
     5.74800     0.52314716E-02
     5.75200     0.53043471E-02
     5.75600     0.53787859E-02
     5.76000     0.54548350E-02
     5.76400     0.55325433E-02
     5.76800     0.56119619E-02
     5.77200     0.56931437E-02
     5.77600     0.57761437E-02
     5.78000     0.58610193E-02
     5.78400     0.59478302E-02
     5.78800     0.60366386E-02
     5.79200     0.61275092E-02
     5.79600     0.62205097E-02
     5.80000     0.63157105E-02
     5.80400     0.64131850E-02
     5.80800     0.65130100E-02
     5.81200     0.66152656E-02
     5.81600     0.67200354E-02
     5.82000     0.68274069E-02
     5.82400     0.69374715E-02
     5.82800     0.70503249E-02
     5.83200     0.71660673E-02
     5.83600     0.72848034E-02
     5.84000     0.74066431E-02
     5.84400     0.75317015E-02
     5.84800     0.76600995E-02
     5.85200     0.77919637E-02
     5.85600     0.79274272E-02
     5.86000     0.80666297E-02
     5.86400     0.82097184E-02
     5.86800     0.83568476E-02
     5.87200     0.85081802E-02
     5.87600     0.86638874E-02
     5.88000     0.88241498E-02
     5.88400     0.89891578E-02
     5.88800     0.91591124E-02
     5.89200     0.93342258E-02
     5.89600     0.95147223E-02
     5.90000     0.97008390E-02
     5.90400     0.98928272E-02
     5.90800     0.10090953E-01
     5.91200     0.10295497E-01
     5.91600     0.10506761E-01
     5.92000     0.10725060E-01
     5.92400     0.10950734E-01
     5.92800     0.11184141E-01
     5.93200     0.11425665E-01
     5.93600     0.11675712E-01
     5.94000     0.11934720E-01
     5.94400     0.12203152E-01
     5.94800     0.12481508E-01
     5.95200     0.12770319E-01
     5.95600     0.13070156E-01
     5.96000     0.13381634E-01
     5.96400     0.13705411E-01
     5.96800     0.14042196E-01
     5.97200     0.14392754E-01
     5.97600     0.14757911E-01
     5.98000     0.15138558E-01
     5.98400     0.15535663E-01
     5.98800     0.15950272E-01
     5.99200     0.16383525E-01
     5.99600     0.16836662E-01
     6.00000     0.17311035E-01
     6.00400     0.17808123E-01
     6.00800     0.18329546E-01
     6.01200     0.18877084E-01
     6.01600     0.19452696E-01
     6.02000     0.20058546E-01
     6.02400     0.20697029E-01
     6.02800     0.21370808E-01
     6.03200     0.22082852E-01
     6.03600     0.22836483E-01
     6.04000     0.23635437E-01
     6.04400     0.24483934E-01
     6.04800     0.25386768E-01
     6.05200     0.26349413E-01
     6.05600     0.27378169E-01
     6.06000     0.28480333E-01
     6.06400     0.29664428E-01
     6.06800     0.30940499E-01
     6.07200     0.32320488E-01
     6.07600     0.33818728E-01
     6.08000     0.35452587E-01
     6.08400     0.37243294E-01
     6.08800     0.39217005E-01
     6.09200     0.41406171E-01
     6.09600     0.43851259E-01
     6.10000     0.46602899E-01
     6.10400     0.49724523E-01
     6.10800     0.53295530E-01
     6.11200     0.57415009E-01
     6.11600     0.62205989E-01
     6.12000     0.67820132E-01
     6.12400     0.74442675E-01
     6.12800     0.82297353E-01
     6.13200     0.91650869E-01
     6.13600     0.10281635    
     6.14000     0.11615513    
     6.14400     0.13207595    
     6.14800     0.15103089    
     6.15200     0.17350695    
     6.15600     0.20001264    
     6.16000     0.23105912    
     6.16400     0.26713558    
     6.16800     0.30867939    
     6.17200     0.35604191    
     6.17600     0.40945164    
     6.18000     0.46897715    
     6.18400     0.53449267    
     6.18800     0.60564969    
     6.19200     0.68185807    
     6.19600     0.76227997    
     6.20000     0.84583898    
     6.20400     0.93124611    
     6.20800      1.0170427    
     6.21200      1.1016589    
     6.21600      1.1834841    
     6.22000      1.2609448    
     6.22400      1.3325847    
     6.22800      1.3971395    
     6.23200      1.4536000    
     6.23600      1.5012588    
     6.24000      1.5397356    
     6.24400      1.5689789    
     6.24800      1.5892448    
     6.25200      1.6010539    
     6.25600      1.6051335    
     6.26000      1.6023480    
     6.26400      1.5936278    
     6.26800      1.5799005    
     6.27200      1.5620343    
     6.27600      1.5407946    
     6.28000      1.5168202    
     6.28400      1.4906168    
     6.28800      1.4625680    
     6.29200      1.4329603    
     6.29600      1.4020167    
     6.30000      1.3699342    
     6.30400      1.3369202    
     6.30800      1.3032232    
     6.31200      1.2691539    
     6.31600      1.2350966    
     6.32000      1.2015084    
     6.32400      1.1689087    
     6.32800      1.1378614    
     6.33200      1.1089511    
     6.33600      1.0827575    
     6.34000      1.0598305    
     6.34400      1.0406682    
     6.34800      1.0256994    
     6.35200      1.0152712    
     6.35600      1.0096417    
     6.36000      1.0089772    
     6.36400      1.0133531    
     6.36800      1.0227560    
     6.37200      1.0370876    
     6.37600      1.0561676    
     6.38000      1.0797363    
     6.38400      1.1074560    
     6.38800      1.1389115    
     6.39200      1.1736108    
     6.39600      1.2109862    
     6.40000      1.2503977    
     6.40400      1.2911389    
     6.40800      1.3324464    
     6.41200      1.3735140    
     6.41600      1.4135109    
     6.42000      1.4516038    
     6.42400      1.4869823    
     6.42800      1.5188865    
     6.43200      1.5466341    
     6.43600      1.5696463    
     6.44000      1.5874701    
     6.44400      1.5997949    
     6.44800      1.6064619    
     6.45200      1.6074663    
     6.45600      1.6029503    
     6.46000      1.5931885    
     6.46400      1.5785672    
     6.46800      1.5595575    
     6.47200      1.5366865    
     6.47600      1.5105080    
     6.48000      1.4815743    
     6.48400      1.4504140    
     6.48800      1.4175136    
     6.49200      1.3833074    
     6.49600      1.3481737    
     6.50000      1.3124367    
     6.50400      1.2763750    
     6.50800      1.2402320    
     6.51200      1.2042291    
     6.51600      1.1685774    
     6.52000      1.1334883    
     6.52400      1.0991807    
     6.52800      1.0658835    
     6.53200      1.0338352    
     6.53600      1.0032792    
     6.54000     0.97445588    
     6.54400     0.94759340    
     6.54800     0.92289790    
     6.55200     0.90054384    
     6.55600     0.88066604    
     6.56000     0.86335379    
     6.56400     0.84864741    
     6.56800     0.83653740    
     6.57200     0.82696581    
     6.57600     0.81982949    
     6.58000     0.81498465    
     6.58400     0.81225216    
     6.58800     0.81142314    
     6.59200     0.81226433    
     6.59600     0.81452320    
     6.60000     0.81793244    
     6.60400     0.82221414    
     6.60800     0.82708357    
     6.61200     0.83225291    
     6.61600     0.83743504    
     6.62000     0.84234763    
     6.62400     0.84671761    
     6.62800     0.85028602    
     6.63200     0.85281317    
     6.63600     0.85408404    
     6.64000     0.85391341    
     6.64400     0.85215074    
     6.64800     0.84868413    
     6.65200     0.84344325    
     6.65600     0.83640091    
     6.66000     0.82757291    
     6.66400     0.81701628    
     6.66800     0.80482580    
     6.67200     0.79112897    
     6.67600     0.77607980    
     6.68000     0.75985165    
     6.68400     0.74262979    
     6.68800     0.72460407    
     6.69200     0.70596215    
     6.69600     0.68688385    
     6.70000     0.66753675    
     6.70400     0.64807342    
     6.70800     0.62863009    
     6.71200     0.60932683    
     6.71600     0.59026878    
     6.72000     0.57154827    
     6.72400     0.55324727    
     6.72800     0.53543985    
     6.73200     0.51819432    
     6.73600     0.50157470    
     6.74000     0.48564139    
     6.74400     0.47045108    
     6.74800     0.45605589    
     6.75200     0.44250190    
     6.75600     0.42982739    
     6.76000     0.41806100    
     6.76400     0.40721997    
     6.76800     0.39730886    
     6.77200     0.38831871    
     6.77600     0.38022689    
     6.78000     0.37299748    
     6.78400     0.36658227    
     6.78800     0.36092217    
     6.79200     0.35594900    
     6.79600     0.35158739    
     6.80000     0.34775676    
     6.80400     0.34437325    
     6.80800     0.34135150    
     6.81200     0.33860619    
     6.81600     0.33605349    
     6.82000     0.33361221    
     6.82400     0.33120486    
     6.82800     0.32875858    
     6.83200     0.32620598    
     6.83600     0.32348592    
     6.84000     0.32054421    
     6.84400     0.31733437    
     6.84800     0.31381817    
     6.85200     0.30996619    
     6.85600     0.30575821    
     6.86000     0.30118341    
     6.86400     0.29624036    
     6.86800     0.29093679    
     6.87200     0.28528907    
     6.87600     0.27932144    
     6.88000     0.27306505    
     6.88400     0.26655671    
     6.88800     0.25983753    
     6.89200     0.25295151    
     6.89600     0.24594409    
     6.90000     0.23886072    
     6.90400     0.23174565    
     6.90800     0.22464090    
     6.91200     0.21758541    
     6.91600     0.21061453    
     6.92000     0.20375972    
     6.92400     0.19704854    
     6.92800     0.19050481    
     6.93200     0.18414887    
     6.93600     0.17799803    
     6.94000     0.17206691    
     6.94400     0.16636784    
     6.94800     0.16091112    
     6.95200     0.15570520    
     6.95600     0.15075672    
     6.96000     0.14607046    
     6.96400     0.14164921    
     6.96800     0.13749361    
     6.97200     0.13360193    
     6.97600     0.12996991    
     6.98000     0.12659071    
     6.98400     0.12345490    
     6.98800     0.12055052    
     6.99200     0.11786332    
     6.99600     0.11537706    
     7.00000     0.11307381    
     7.00400     0.11093447    
     7.00800     0.10893908    
     7.01200     0.10706736    
     7.01600     0.10529905    
     7.02000     0.10361432    
     7.02400     0.10199409    
     7.02800     0.10042028    
     7.03200     0.98876050E-01
     7.03600     0.97345991E-01
     7.04000     0.95816230E-01
     7.04400     0.94274552E-01
     7.04800     0.92710470E-01
     7.05200     0.91115278E-01
     7.05600     0.89482086E-01
     7.06000     0.87805826E-01
     7.06400     0.86083247E-01
     7.06800     0.84312877E-01
     7.07200     0.82494962E-01
     7.07600     0.80631375E-01
     7.08000     0.78725492E-01
     7.08400     0.76782043E-01
     7.08800     0.74806921E-01
     7.09200     0.72806982E-01
     7.09600     0.70789819E-01
     7.10000     0.68763520E-01
     7.10400     0.66736436E-01
     7.10800     0.64716946E-01
     7.11200     0.62713246E-01
     7.11600     0.60733159E-01
     7.12000     0.58783981E-01
     7.12400     0.56872361E-01
     7.12800     0.55004221E-01
     7.13200     0.53184714E-01
     7.13600     0.51418217E-01
     7.14000     0.49708354E-01
     7.14400     0.48058035E-01
     7.14800     0.46469517E-01
     7.15200     0.44944462E-01
     7.15600     0.43483997E-01
     7.16000     0.42088765E-01
     7.16400     0.40758964E-01
     7.16800     0.39494375E-01
     7.17200     0.38294374E-01
     7.17600     0.37157940E-01
     7.18000     0.36083654E-01
     7.18400     0.35069695E-01
     7.18800     0.34113852E-01
     7.19200     0.33213527E-01
     7.19600     0.32365764E-01
     7.20000     0.31567283E-01
     7.20400     0.30814526E-01
     7.20800     0.30103720E-01
     7.21200     0.29430938E-01
     7.21600     0.28792176E-01
     7.22000     0.28183420E-01
     7.22400     0.27600720E-01
     7.22800     0.27040254E-01
     7.23200     0.26498383E-01
     7.23600     0.25971702E-01
     7.24000     0.25457075E-01
     7.24400     0.24951666E-01
     7.24800     0.24452957E-01
     7.25200     0.23958763E-01
     7.25600     0.23467232E-01
     7.26000     0.22976850E-01
     7.26400     0.22486433E-01
     7.26800     0.21995118E-01
     7.27200     0.21502355E-01
     7.27600     0.21007884E-01
     7.28000     0.20511722E-01
     7.28400     0.20014142E-01
     7.28800     0.19515644E-01
     7.29200     0.19016931E-01
     7.29600     0.18518877E-01
     7.30000     0.18022496E-01
     7.30400     0.17528906E-01
     7.30800     0.17039298E-01
     7.31200     0.16554897E-01
     7.31600     0.16076931E-01
     7.32000     0.15606600E-01
     7.32400     0.15145048E-01
     7.32800     0.14693339E-01
     7.33200     0.14252435E-01
     7.33600     0.13823187E-01
     7.34000     0.13406323E-01
     7.34400     0.13002440E-01
     7.34800     0.12612011E-01
     7.35200     0.12235383E-01
     7.35600     0.11872787E-01
     7.36000     0.11524344E-01
     7.36400     0.11190075E-01
     7.36800     0.10869912E-01
     7.37200     0.10563704E-01
     7.37600     0.10271227E-01
     7.38000     0.99921882E-02
     7.38400     0.97262355E-02
     7.38800     0.94729572E-02
     7.39200     0.92318889E-02
     7.39600     0.90025156E-02
     7.40000     0.87842769E-02
     7.40400     0.85765711E-02
     7.40800     0.83787613E-02
     7.41200     0.81901823E-02
     7.41600     0.80101488E-02
     7.42000     0.78379643E-02
     7.42400     0.76729309E-02
     7.42800     0.75143588E-02
     7.43200     0.73615763E-02
     7.43600     0.72139382E-02
     7.44000     0.70708345E-02
     7.44400     0.69316967E-02
     7.44800     0.67960034E-02
     7.45200     0.66632842E-02
     7.45600     0.65331222E-02
     7.46000     0.64051554E-02
     7.46400     0.62790764E-02
     7.46800     0.61546318E-02
     7.47200     0.60316206E-02
     7.47600     0.59098913E-02
     7.48000     0.57893393E-02
     7.48400     0.56699038E-02
     7.48800     0.55515637E-02
     7.49200     0.54343339E-02
     7.49600     0.53182613E-02
     7.50000     0.52034202E-02
     7.50400     0.50899076E-02
     7.50800     0.49778391E-02
     7.51200     0.48673438E-02
     7.51600     0.47585598E-02
     7.52000     0.46516294E-02
     7.52400     0.45466953E-02
     7.52800     0.44438959E-02
     7.53200     0.43433621E-02
     7.53600     0.42452143E-02
     7.54000     0.41495593E-02
     7.54400     0.40564885E-02
     7.54800     0.39660766E-02
     7.55200     0.38783808E-02
     7.55600     0.37934403E-02
     7.56000     0.37112767E-02
     7.56400     0.36318948E-02
     7.56800     0.35552834E-02
     7.57200     0.34814164E-02
     7.57600     0.34102546E-02
     7.58000     0.33417467E-02
     7.58400     0.32758306E-02
     7.58800     0.32124351E-02
     7.59200     0.31514806E-02
     7.59600     0.30928804E-02
     7.60000     0.30365416E-02
     7.60400     0.29823660E-02
     7.60800     0.29302507E-02
     7.61200     0.28800896E-02
     7.61600     0.28317733E-02
     7.62000     0.27851908E-02
     7.62400     0.27402305E-02
     7.62800     0.26967809E-02
     7.63200     0.26547317E-02
     7.63600     0.26139755E-02
     7.64000     0.25744084E-02
     7.64400     0.25359312E-02
     7.64800     0.24984502E-02
     7.65200     0.24618784E-02
     7.65600     0.24261357E-02
     7.66000     0.23911495E-02
     7.66400     0.23568550E-02
     7.66800     0.23231955E-02
     7.67200     0.22901218E-02
     7.67600     0.22575926E-02
     7.68000     0.22255738E-02
     7.68400     0.21940383E-02
     7.68800     0.21629654E-02
     7.69200     0.21323402E-02
     7.69600     0.21021534E-02
     7.70000     0.20724001E-02
     7.70400     0.20430798E-02
     7.70800     0.20141953E-02
     7.71200     0.19857525E-02
     7.71600     0.19577595E-02
     7.72000     0.19302259E-02
     7.72400     0.19031628E-02
     7.72800     0.18765814E-02
     7.73200     0.18504934E-02
     7.73600     0.18249097E-02
     7.74000     0.17998405E-02
     7.74400     0.17752947E-02
     7.74800     0.17512797E-02
     7.75200     0.17278010E-02
     7.75600     0.17048622E-02
     7.76000     0.16824649E-02
     7.76400     0.16606084E-02
     7.76800     0.16392899E-02
     7.77200     0.16185048E-02
     7.77600     0.15982463E-02
     7.78000     0.15785058E-02
     7.78400     0.15592732E-02
     7.78800     0.15405369E-02
     7.79200     0.15222840E-02
     7.79600     0.15045004E-02
     7.80000     0.14871714E-02
     7.80400     0.14702812E-02
     7.80800     0.14538136E-02
     7.81200     0.14377518E-02
     7.81600     0.14220789E-02
     7.82000     0.14067776E-02
     7.82400     0.13918305E-02
     7.82800     0.13772205E-02
     7.83200     0.13629303E-02
     7.83600     0.13489431E-02
     7.84000     0.13352424E-02
     7.84400     0.13218123E-02
     7.84800     0.13086375E-02
     7.85200     0.12957033E-02
     7.85600     0.12829960E-02
     7.86000     0.12705027E-02
     7.86400     0.12582115E-02
     7.86800     0.12461114E-02
     7.87200     0.12341926E-02
     7.87600     0.12224462E-02
     7.88000     0.12108644E-02
     7.88400     0.11994402E-02
     7.88800     0.11881679E-02
     7.89200     0.11770423E-02
     7.89600     0.11660593E-02
     7.90000     0.11552154E-02
     7.90400     0.11445077E-02
     7.90800     0.11339342E-02
     7.91200     0.11234931E-02
     7.91600     0.11131831E-02
     7.92000     0.11030034E-02
     7.92400     0.10929533E-02
     7.92800     0.10830326E-02
     7.93200     0.10732408E-02
     7.93600     0.10635778E-02
     7.94000     0.10540436E-02
     7.94400     0.10446379E-02
     7.94800     0.10353605E-02
     7.95200     0.10262111E-02
     7.95600     0.10171890E-02
     7.96000     0.10082937E-02
     7.96400     0.99952432E-03
     7.96800     0.99087967E-03
     7.97200     0.98235849E-03
     7.97600     0.97395926E-03
     7.98000     0.96568027E-03
     7.98400     0.95751958E-03
     7.98800     0.94947511E-03
     7.99200     0.94154457E-03
     7.99600     0.93372557E-03
     8.00000     0.92601555E-03
     8.00400     0.91841190E-03
     8.00800     0.91091189E-03
     8.01200     0.90351274E-03
     8.01600     0.89621164E-03
     8.02000     0.88900574E-03
     8.02400     0.88189222E-03
     8.02800     0.87486823E-03
     8.03200     0.86793096E-03
     8.03600     0.86107765E-03
     8.04000     0.85430558E-03
     8.04400     0.84761209E-03
     8.04800     0.84099461E-03
     8.05200     0.83445063E-03
     8.05600     0.82797777E-03
     8.06000     0.82157372E-03
     8.06400     0.81523632E-03
     8.06800     0.80896349E-03
     8.07200     0.80275330E-03
     8.07600     0.79660394E-03
     8.08000     0.79051373E-03
     8.08400     0.78448112E-03
     8.08800     0.77850468E-03
     8.09200     0.77258310E-03
     8.09600     0.76671518E-03
     8.10000     0.76089986E-03
     8.10400     0.75513614E-03
     8.10800     0.74942313E-03
     8.11200     0.74376003E-03
     8.11600     0.73814610E-03
     8.12000     0.73258066E-03
     8.12400     0.72706311E-03
     8.12800     0.72159288E-03
     8.13200     0.71616943E-03
     8.13600     0.71079226E-03
     8.14000     0.70546090E-03
     8.14400     0.70017488E-03
     8.14800     0.69493376E-03
     8.15200     0.68973707E-03
     8.15600     0.68458438E-03
     8.16000     0.67947522E-03
     8.16400     0.67440914E-03
     8.16800     0.66938566E-03
     8.17200     0.66440429E-03
     8.17600     0.65946453E-03
     8.18000     0.65456586E-03
     8.18400     0.64970774E-03
     8.18800     0.64488963E-03
     8.19200     0.64011097E-03
     8.19600     0.63537117E-03
     8.20000     0.63066965E-03
     8.20400     0.62600581E-03
     8.20800     0.62137905E-03
     8.21200     0.61678877E-03
     8.21600     0.61223435E-03
     8.22000     0.60771517E-03
     8.22400     0.60323064E-03
     8.22800     0.59878013E-03
     8.23200     0.59436306E-03
     8.23600     0.58997884E-03
     8.24000     0.58562686E-03
     8.24400     0.58130656E-03
     8.24800     0.57701738E-03
     8.25200     0.57275877E-03
     8.25600     0.56853018E-03
     8.26000     0.56433109E-03
     8.26400     0.56016099E-03
     8.26800     0.55601939E-03
     8.27200     0.55190582E-03
     8.27600     0.54781981E-03
     8.28000     0.54376091E-03
     8.28400     0.53972870E-03
     8.28800     0.53572278E-03
     8.29200     0.53174274E-03
     8.29600     0.52778821E-03
     8.30000     0.52385883E-03
     8.30400     0.51995425E-03
     8.30800     0.51607414E-03
     8.31200     0.51221817E-03
     8.31600     0.50838605E-03
     8.32000     0.50457748E-03
     8.32400     0.50079217E-03
     8.32800     0.49702984E-03
     8.33200     0.49329023E-03
     8.33600     0.48957308E-03
     8.34000     0.48587813E-03
     8.34400     0.48220513E-03
     8.34800     0.47855384E-03
     8.35200     0.47492402E-03
     8.35600     0.47131544E-03
     8.36000     0.46772785E-03
     8.36400     0.46416103E-03
     8.36800     0.46061475E-03
     8.37200     0.45708879E-03
     8.37600     0.45358290E-03
     8.38000     0.45009687E-03
     8.38400     0.44663047E-03
     8.38800     0.44318348E-03
     8.39200     0.43975567E-03
     8.39600     0.43634682E-03
     8.40000     0.43295670E-03
     8.40400     0.42958510E-03
     8.40800     0.42623179E-03
     8.41200     0.42289656E-03
     8.41600     0.41957918E-03
     8.42000     0.41627944E-03
     8.42400     0.41299712E-03
     8.42800     0.40973201E-03
     8.43200     0.40648389E-03
     8.43600     0.40325256E-03
     8.44000     0.40003781E-03
     8.44400     0.39683943E-03
     8.44800     0.39365723E-03
     8.45200     0.39049099E-03
     8.45600     0.38734053E-03
     8.46000     0.38420565E-03
     8.46400     0.38108616E-03
     8.46800     0.37798186E-03
     8.47200     0.37489259E-03
     8.47600     0.37181814E-03
     8.48000     0.36875835E-03
     8.48400     0.36571304E-03
     8.48800     0.36268203E-03
     8.49200     0.35966516E-03
     8.49600     0.35666225E-03
     8.50000     0.35367314E-03
     8.50400     0.35069768E-03
     8.50800     0.34773569E-03
     8.51200     0.34478703E-03
     8.51600     0.34185154E-03
     8.52000     0.33892908E-03
     8.52400     0.33601948E-03
     8.52800     0.33312261E-03
     8.53200     0.33023832E-03
     8.53600     0.32736646E-03
     8.54000     0.32450691E-03
     8.54400     0.32165951E-03
     8.54800     0.31882413E-03
     8.55200     0.31600064E-03
     8.55600     0.31318890E-03
     8.56000     0.31038877E-03
     8.56400     0.30760014E-03
     8.56800     0.30482286E-03
     8.57200     0.30205680E-03
     8.57600     0.29930185E-03
     8.58000     0.29655787E-03
     8.58400     0.29382473E-03
     8.58800     0.29110232E-03
     8.59200     0.28839050E-03
     8.59600     0.28568916E-03
     8.60000     0.28299817E-03
     8.60400     0.28031741E-03
     8.60800     0.27764676E-03
     8.61200     0.27498611E-03
     8.61600     0.27233533E-03
     8.62000     0.26969431E-03
     8.62400     0.26706292E-03
     8.62800     0.26444106E-03
     8.63200     0.26182861E-03
     8.63600     0.25922546E-03
     8.64000     0.25663149E-03
     8.64400     0.25404659E-03
     8.64800     0.25147066E-03
     8.65200     0.24890357E-03
     8.65600     0.24634523E-03
     8.66000     0.24379551E-03
     8.66400     0.24125433E-03
     8.66800     0.23872156E-03
     8.67200     0.23619711E-03
     8.67600     0.23368087E-03
     8.68000     0.23117274E-03
     8.68400     0.22867261E-03
     8.68800     0.22618038E-03
     8.69200     0.22369596E-03
     8.69600     0.22121924E-03
     8.70000     0.21875012E-03
     8.70400     0.21628850E-03
     8.70800     0.21383429E-03
     8.71200     0.21138740E-03
     8.71600     0.20894772E-03
     8.72000     0.20651516E-03
     8.72400     0.20408962E-03
     8.72800     0.20167102E-03
     8.73200     0.19925926E-03
     8.73600     0.19685424E-03
     8.74000     0.19445588E-03
     8.74400     0.19206409E-03
     8.74800     0.18967877E-03
     8.75200     0.18729984E-03
     8.75600     0.18492720E-03
     8.76000     0.18256078E-03
     8.76400     0.18020048E-03
     8.76800     0.17784621E-03
     8.77200     0.17549789E-03
     8.77600     0.17315543E-03
     8.78000     0.17081875E-03
     8.78400     0.16848776E-03
     8.78800     0.16616238E-03
     8.79200     0.16384252E-03
     8.79600     0.16152811E-03
     8.80000     0.15921905E-03
     8.80400     0.15691526E-03
     8.80800     0.15461667E-03
     8.81200     0.15232319E-03
     8.81600     0.15003474E-03
     8.82000     0.14775124E-03
     8.82400     0.14547261E-03
     8.82800     0.14319877E-03
     8.83200     0.14092964E-03
     8.83600     0.13866514E-03
     8.84000     0.13640519E-03
     8.84400     0.13414972E-03
     8.84800     0.13189865E-03
     8.85200     0.12965189E-03
     8.85600     0.12740938E-03
     8.86000     0.12517103E-03
     8.86400     0.12293677E-03
     8.86800     0.12070652E-03
     8.87200     0.11848022E-03
     8.87600     0.11625777E-03
     8.88000     0.11403911E-03
     8.88400     0.11182417E-03
     8.88800     0.10961286E-03
     8.89200     0.10740512E-03
     8.89600     0.10520088E-03
     8.90000     0.10300005E-03
     8.90400     0.10080256E-03
     8.90800     0.98608349E-04
     8.91200     0.96417338E-04
     8.91600     0.94229455E-04
     8.92000     0.92044628E-04
     8.92400     0.89862787E-04
     8.92800     0.87683859E-04
     8.93200     0.85507774E-04
     8.93600     0.83334461E-04
     8.94000     0.81163849E-04
     8.94400     0.78995869E-04
     8.94800     0.76830450E-04
     8.95200     0.74667522E-04
     8.95600     0.72507016E-04
     8.96000     0.70348862E-04
     8.96400     0.68192991E-04
     8.96800     0.66039335E-04
     8.97200     0.63887824E-04
     8.97600     0.61738390E-04
     8.98000     0.59590964E-04
     8.98400     0.57445478E-04
     8.98800     0.55301864E-04
     8.99200     0.53160054E-04
     8.99600     0.51019981E-04
     9.00000     0.48881575E-04
