  -516.561975005580      -4.325015279270187E-193  1.672674651156561E-192
  -515.769094000199       5.790697448507827E-166 -8.457256596670988E-166
  -514.976212994818      -8.997496301863383E-165  6.101720651583171E-165
  -514.183331989437       6.430462761205672E-164 -1.274772178518572E-164
  -513.390450984057      -3.093950366029752E-163 -7.160176780992779E-164
  -512.597569978676       1.084220661854581E-162  8.573862404402202E-163
  -511.804688973295      -2.463281681854017E-162 -5.133400415128056E-162
  -511.011807967914      -2.789564837475394E-163  2.283057937701398E-161
  -510.218926962534       4.093053745922805E-161 -8.078949250726391E-161
  -509.426045957153      -2.838022751035663E-160  2.186687240594848E-160
  -508.633164951772       1.379743746213362E-159 -3.235653130603193E-160
  -507.840283946391      -5.515700958626386E-159 -9.475079958043802E-160
  -507.047402941010       1.883270642720897E-158  1.130479308917586E-158
  -506.254521935630      -5.428746153701305E-158 -6.559567657071218E-158
  -505.461640930249       1.210437963159434E-157  3.003010056157744E-157
  -504.668759924868      -1.222241605436828E-157 -1.193868458323368E-156
  -503.875878919487      -6.772380797643853E-157  4.260687714867254E-156
  -503.082997914107       5.875706365025567E-156 -1.379384785296180E-155
  -502.290116908726      -3.007119045259018E-155  4.034148799511075E-155
  -501.497235903345       1.256183169110632E-154 -1.041668569291719E-154
  -500.704354897964      -4.621857520809625E-154  2.220223792633503E-154
  -499.911473892583       1.537910866201629E-153 -2.978173844482059E-154
  -499.118592887203      -4.658341747950907E-153 -3.812494874378262E-154
  -498.325711881822       1.273906613447551E-152  5.003684476728433E-153
  -497.532830876441      -3.052171760600408E-152 -2.513112250189968E-152
  -496.739949871060       5.862740699346330E-152  9.692175959258427E-152
  -495.947068865680      -5.862832587760464E-152 -3.183141481853730E-151
  -495.154187860299      -1.872139549794821E-151  9.086215072871465E-151
  -494.361306854918       1.537768008816459E-150 -2.198442130310471E-150
  -493.568425849537      -6.775113982466080E-150  4.010086224883886E-150
  -492.775544844156       2.345793957539219E-149 -2.215958879637026E-150
  -491.982663838776      -6.772082091670240E-149 -2.505014252010213E-149
  -491.189782833395       1.575884999962019E-148  1.634986135463140E-148
  -490.396901828014      -2.335946337866277E-148 -6.948228252904654E-148
  -489.604020822633      -2.509035753692427E-148  2.410533547307499E-147
  -488.811139817252       3.989575441482525E-147 -7.129342393519129E-147
  -488.018258811872      -2.167619570268271E-146  1.756460917729596E-146
  -487.225377806491       9.056790897016573E-146 -3.115581512056174E-146
  -486.432496801110      -3.278122718871155E-145  3.982787405382042E-147
  -485.639615795729       1.067469972048303E-144  3.051415306085774E-145
  -484.846734790349      -3.161213578549932E-144 -1.913990995937171E-144
  -484.053853784968       8.457230534600414E-144  8.558532818711026E-144
  -483.260972779587      -1.982016500611924E-143 -3.267080232468672E-143
  -482.468091774206       3.693886910600787E-143  1.123624736504881E-142
  -481.675210768825      -3.230727138172638E-143 -3.556504081955569E-142
  -480.882329763445      -1.477550521898000E-142  1.043578110656598E-141
  -480.089448758064       1.130945121178475E-141 -2.832188229254142E-141
  -479.296567752683      -5.113405511358900E-141  7.013021456771418E-141
  -478.503686747302       1.898851982171685E-140 -1.529033037106870E-140
  -477.710805741921      -6.244223500208754E-140  2.647599721257408E-140
  -476.917924736541       1.864123272101966E-139 -2.047021338553449E-140
  -476.125043731160      -5.072271027886542E-139 -1.013402685227504E-139
  -475.332162725779       1.241060810052727E-138  7.075216465680043E-139
  -474.539281720398      -2.611472158356841E-138 -2.984870180438110E-138
  -473.746400715018       4.063302889437300E-138  1.033846863156292E-137
  -472.953519709637      -7.390443031741280E-139 -3.147733360309082E-137
  -472.160638704256      -2.928022339225517E-137  8.562882524496094E-137
  -471.367757698875       1.656929034949716E-136 -2.053654191355938E-136
  -470.574876693494      -6.638290139580188E-136  4.085736370002596E-136
  -469.781995688114       2.266003470616600E-135 -5.208097585035570E-136
  -468.989114682733      -6.944736262425701E-135 -5.679584310540098E-136
  -468.196233677352       1.944822326956617E-134  7.514890691934985E-135
  -467.403352671971      -4.979091414372055E-134 -3.673235341295732E-134
  -466.610471666591       1.146521888888395E-133  1.399985611762225E-133
  -465.817590661210      -2.259836940966189E-133 -4.670162790857732E-133
  -465.024709655829       3.211498892169178E-133  1.417315016819567E-132
  -464.231828650448       1.535637806231565E-134 -3.971402103682879E-132
  -463.438947645067      -2.475971716787911E-132  1.030340388968818E-131
  -462.646066639687       1.275013560618064E-131 -2.456738248430369E-131
  -461.853185634306      -4.775030648964472E-131  5.262247328311385E-131
  -461.060304628925       1.528640939532038E-130 -9.532483608361379E-131
  -460.267423623544      -4.378653064492022E-130  1.173197377256936E-130
  -459.474542618163       1.135931504401544E-129  6.087023603138932E-131
  -458.681661612783      -2.647377626448154E-129 -1.080197298836908E-129
  -457.888780607402       5.345033331537784E-129  4.862206755241228E-129
  -457.095899602021      -8.297277153944961E-129 -1.644421192377774E-128
  -456.303018596640       4.266261178458239E-129  4.730292643638543E-128
  -455.510137591260       3.625493679311049E-128 -1.187821177750591E-127
  -454.717256585879      -2.094040941987339E-127  2.550017144170110E-127
  -453.924375580498       7.864468108585877E-127 -4.207834360431110E-127
  -453.131494575117      -2.440625954276941E-126  2.538445048054712E-127
  -452.338613569736       6.606538578495084E-126  1.858829150283766E-126
  -451.545732564356      -1.564539168381416E-125 -1.157706180691415E-125
  -450.752851558975       3.103806243537880E-125  4.627019477790156E-125
  -449.959970553594      -4.289072878284441E-125 -1.541771609615595E-124
  -449.167089548213      -1.065088832206460E-125  4.577452416485521E-124
  -448.374208542832       3.748364489211983E-124 -1.239414662448386E-123
  -447.581327537452      -1.856933954895091E-123  3.075622051678396E-123
  -446.788446532071       6.816803744519129E-123 -6.928128557308238E-123
  -445.995565526690      -2.152759638975277E-122  1.371945553053373E-122
  -445.202684521309       6.123361169254408E-122 -2.172201252925815E-122
  -444.409803515929      -1.594855409930035E-121  1.687296206308927E-122
  -443.616922510548       3.810322882853526E-121  5.640705409322403E-122
  -442.824041505167      -8.253326279937742E-121 -3.712711638589351E-121
  -442.031160499786       1.565483722916350E-120  1.391036065570590E-120
  -441.238279494405      -2.348153796595498E-120 -4.196887937296870E-120
  -440.445398489025       1.594908626725387E-120  1.092752722730606E-119
  -439.652517483644       6.315326961851888E-120 -2.474886159465718E-119
  -438.859636478263      -3.725424646539837E-119  4.688964016983538E-119
  -438.066755472882       1.285689698086748E-118 -6.291619748471292E-119
  -437.273874467502      -3.503301406078176E-118 -2.489037305914547E-120
  -436.480993462121       7.810058899158215E-118  4.081540323878894E-118
  -435.688112456740      -1.306034453655155E-117 -1.873411791341942E-117
  -434.895231451359       7.872509965626954E-118  6.054716004455235E-117
  -434.102350445978       5.646301358830937E-117 -1.586446550531330E-116
  -433.309469440598      -3.421647937121283E-116  3.341287887261977E-116
  -432.516588435217       1.313102783642148E-115 -4.666462001032446E-116
  -431.723707429836      -4.135056132280470E-115 -2.510342394432175E-116
  -430.930826424455       1.134689068602939E-114  5.169284060322332E-115
  -430.137945419075      -2.740096430245124E-114 -2.582652571501874E-114
  -429.345064413694       5.668625482599755E-114  9.769265287839657E-114
  -428.552183408313      -8.999593292005092E-114 -3.207648521898356E-113
  -427.759302402932       5.092460499018040E-114  9.560074133445754E-113
  -426.966421397551       3.783428316456444E-113 -2.633105318471579E-112
  -426.173540392171      -2.261225246500467E-112  6.741400571909895E-112
  -425.380659386790       8.744652805608324E-112 -1.600983296284247E-111
  -424.587778381409      -2.833707470403740E-111  3.489569141683556E-111
  -423.794897376028       8.226202907742062E-111 -6.805373353887977E-111
  -423.002016370648      -2.191623162226626E-110  1.113148323540552E-110
  -422.209135365267       5.395472559782320E-110 -1.200980618564213E-110
  -421.416254359886      -1.221645456131475E-109 -8.020973610339506E-111
  -420.623373354505       2.496790652220532E-109  1.013136750369479E-109
  -419.830492349124      -4.388391056323572E-109 -4.009611275682071E-109
  -419.037611343744       5.679585849808673E-109  1.197325014918731E-108
  -418.244730338363      -7.977202372796715E-110 -3.006498575408200E-108
  -417.451849332982      -2.809565402198711E-108  6.403655157786325E-108
  -416.658968327601       1.280332211628834E-107 -1.079041294656046E-107
  -415.866087322220      -4.031552762281627E-107  9.600119933117463E-108
  -415.073206316840       1.033639511353996E-106  2.460707271491479E-107
  -414.280325311459      -2.171022837480558E-106 -1.803084671927624E-106
  -413.487444306078       3.270344481851484E-106  7.025073554817375E-106
  -412.694563300697      -4.325684810124922E-107 -2.189298549793026E-105
  -411.901682295317      -2.242677401139571E-105  5.913902947444822E-105
  -411.108801289936       1.199753929416446E-104 -1.409406245560276E-104
  -410.315920284555      -4.585446265622752E-104  2.910614159555740E-104
  -409.523039279174       1.505754530081593E-103 -4.802026731554287E-104
  -408.730158273793      -4.492386995049147E-103  4.158678113329847E-104
  -407.937277268413       1.246085261395247E-102  1.114549727245144E-103
  -407.144396263032      -3.244686182234277E-102 -8.071870777244603E-103
  -406.351515257651       7.951405787628252E-102  3.187455151355952E-102
  -405.558634252270      -1.829478499430385E-101 -1.028380056016159E-101
  -404.765753246890       3.924177603333741E-101  2.964541330829253E-101
  -403.972872241509      -7.736370145663049E-101 -7.899007412855800E-101
  -403.179991236128       1.360643058149710E-100  1.973172197617453E-100
  -402.387110230747      -1.978578912249406E-100 -4.640032486003172E-100
  -401.594229225366       1.739189596107588E-100  1.024140343942899E-099
  -400.801348219986       2.187743508024909E-100 -2.099888675124096E-099
  -400.008467214605      -1.718529426183889E-099  3.910947418770384E-099
  -399.215586209224       5.989622221138802E-099 -6.282123706170350E-099
  -398.422705203843      -1.625392137258075E-098  7.394682884840034E-099
  -397.629824198462       3.747370496472679E-098 -5.368262337303233E-100
  -396.836943193082      -7.365808473719103E-098 -3.313134508077097E-098
  -396.044062187701       1.149265485976919E-097  1.380605605172531E-097
  -395.251181182320      -9.516268805110199E-098 -4.025826209701898E-097
  -394.458300176939      -2.238211919757908E-097  9.616632685506115E-097
  -393.665419171558       1.530724631896504E-096 -1.898706227512148E-096
  -392.872538166178      -5.556711941038450E-096  2.770618727773133E-096
  -392.079657160797       1.615723764229877E-095 -9.810957746808320E-097
  -391.286776155416      -4.083457915087027E-095 -1.297297231697767E-095
  -390.493895150035       9.152126420954748E-095  6.801066502592483E-095
  -389.701014144655      -1.796903349249106E-094 -2.426999095014881E-094
  -388.908133139274       2.904027169408636E-094  7.326413047675800E-094
  -388.115252133893      -2.938261622586817E-094 -1.987912291212982E-093
  -387.322371128512      -3.069001492943975E-094  4.963733129697417E-093
  -386.529490123131       3.018059517125978E-093 -1.150580270683161E-092
  -385.736609117751      -1.185240288292947E-092  2.475621995406451E-092
  -384.943728112370       3.652907484426189E-092 -4.901883096054643E-092
  -384.150847106989      -9.866555008784571E-092  8.734235765893804E-092
  -383.357966101608       2.422210334632276E-091 -1.323813558341469E-091
  -382.565085096228      -5.472212636255279E-091  1.407059004325603E-091
  -381.772204090847       1.136828741288110E-090  2.831209039004908E-092
  -380.979323085466      -2.141909619940528E-090 -7.387131869130996E-091
  -380.186442080085       3.524686476019901E-090  2.798676687250639E-090
  -379.393561074704      -4.533433287654058E-090 -7.749416809806846E-090
  -378.600680069324       2.337342146175288E-090  1.796281683737744E-089
  -377.807799063943       1.087549056270170E-089 -3.559064966244341E-089
  -377.014918058562      -5.300631883365656E-089  5.765678878926335E-089
  -376.222037053181       1.583773560057725E-088 -6.076596875030544E-089
  -375.429156047801      -3.773229321283809E-088 -3.821979754561818E-089
  -374.636275042420       7.393779507598722E-088  4.695692627390239E-088
  -373.843394037039      -1.092724957970408E-087 -1.776990434221973E-087
  -373.050513031658       5.955808797540514E-088  5.067514592218373E-087
  -372.257632026277       3.658762608286693E-087 -1.219840014331923E-086
  -371.464751020897      -1.996587160489474E-086  2.523411315716673E-086
  -370.671870015516       6.929398351826312E-086 -4.303940363038379E-086
  -369.878989010135      -1.996633581933921E-085  4.922635409215190E-086
  -369.086108004754       5.109121645346346E-085  2.253180338964372E-086
  -368.293226999373      -1.188278575556807E-084 -3.765688122405494E-085
  -367.500345993993       2.522228656400665E-084  1.558067711887658E-084
  -366.707464988612      -4.828411162237166E-084 -4.879677502846071E-084
  -365.914583983231       8.019983063280934E-084  1.323291800254890E-083
  -365.121702977850      -1.022208552705113E-083 -3.243557765246329E-083
  -364.328821972470       4.096588034811511E-084  7.298297556760969E-083
  -363.535940967089       3.169731810521736E-083 -1.509621246502204E-082
  -362.743059961708      -1.501517950485968E-082  2.836998210853139E-082
  -361.950178956327       4.678512036943330E-082 -4.679402950445724E-082
  -361.157297950946      -1.212236489767119E-081  6.116874630241236E-082
  -360.364416945566       2.763543022429023E-081 -3.596927897309806E-082
  -359.571535940185      -5.600999788774865E-081 -1.295353152202681E-081
  -358.778654934804       9.878299385180500E-081  6.770356052590248E-081
  -357.985773929423      -1.392412639167059E-080 -2.112958174108613E-080
  -357.192892924042       1.007140495767049E-080  5.350051777439797E-080
  -356.400011918662       2.542072091582640E-080 -1.168272833098824E-079
  -355.607130913281      -1.541189346163949E-079  2.196541252973577E-079
  -354.814249907900       5.172940149402982E-079 -3.323053856148395E-079
  -354.021368902519      -1.405562765706197E-078  2.838248865254955E-079
  -353.228487897139       3.348179659131584E-078  5.086000668930413E-079
  -352.435606891758      -7.153537253315392E-078 -3.680499578041995E-078
  -351.642725886377       1.365932687937687E-077  1.331128645534931E-077
  -350.849844880996      -2.252187499900402E-077 -3.869341207384048E-077
  -350.056963875615       2.841470497373153E-077  9.931805850992087E-077
  -349.264082870235      -1.104371091063232E-077 -2.326879830482113E-076
  -348.471201864854      -8.825412100379333E-077  5.038109519181109E-076
  -347.678320859473       4.164648843296041E-076 -1.009425095777239E-075
  -346.885439854092      -1.306056054165942E-075  1.854985892996429E-075
  -346.092558848712       3.444089294128563E-075 -3.048702980571900E-075
  -345.299677843331      -8.122090401840351E-075  4.189558813956210E-075
  -344.506796837950       1.749644886096338E-074 -3.708209793618149E-075
  -343.713915832569      -3.455071989041880E-074 -2.750961920822116E-075
  -342.921034827188       6.186300586970570E-074  2.537465219816193E-074
  -342.128153821808      -9.701597813988583E-074 -8.509008801575845E-074
  -341.335272816427       1.200893416225015E-073  2.195794433041857E-073
  -340.542391811046      -6.479289126739430E-074 -4.854808286051171E-073
  -339.749510805665      -2.399466737064873E-073  9.406620073803197E-073
  -338.956629800285       1.172704583220740E-072 -1.564359768992919E-072
  -338.163748794904      -3.466395927034553E-072  2.018594789378159E-072
  -337.370867789523       8.332182025055935E-072 -1.052572767228461E-072
  -336.577986784142      -1.729223373683747E-071 -4.815206309328575E-072
  -335.785105778761       3.094472926592890E-071  2.392593719888941E-071
  -334.992224773381      -4.474028350132482E-071 -7.418401630820302E-071
  -334.199343768000       3.751546078331161E-071  1.903605149935744E-070
  -333.406462762619       5.577069579077675E-071 -4.329161822502857E-070
  -332.613581757238      -4.026310233458989E-070  8.921123762331703E-070
  -331.820700751857       1.387787018539547E-069 -1.667995913811565E-069
  -331.027819746477      -3.816363323150207E-069  2.777245819394062E-069
  -330.234938741096       9.230465028001623E-069 -3.878165547060343E-069
  -329.442057735715      -2.030972706766762E-068  3.598038421931745E-069
  -328.649176730334       4.115713687971375E-068  1.915727052018013E-069
  -327.856295724954      -7.685734089443632E-068 -2.177990267426472E-068
  -327.063414719573       1.308182156384926E-067  7.508355949816726E-068
  -326.270533714192      -1.967786892945962E-067 -1.975134407496386E-067
  -325.477652708811       2.397946336575302E-067  4.475839513574282E-067
  -324.684771703430      -1.574630008074004E-067 -9.039583362316325E-067
  -323.891890698050      -2.883524799663867E-067  1.631446143146730E-066
  -323.099009692669       1.570244395645198E-066 -2.566253461793861E-066
  -322.306128687288      -4.487797394305042E-066  3.226239640388401E-066
  -321.513247681907       1.011017249716890E-065 -2.094103981959593E-066
  -320.720366676527      -1.917103114770704E-065 -4.510517272809527E-066
  -319.927485671146       2.998969790583622E-065  2.412851313368051E-065
  -319.134604665765      -3.301918503799063E-065 -6.985387262758315E-065
  -318.341723660384      -1.425519635786946E-066  1.594931236285099E-064
  -317.548842655003       1.476277748419444E-064 -3.046739515166273E-064
  -316.755961649623      -5.675192762554168E-064  4.710455379672293E-064
  -315.963080644242       1.574914824059875E-063 -4.671708368738317E-064
  -315.170199638861      -3.705157495732262E-063 -3.252243651308067E-064
  -314.377318633480       7.720786307075531E-063  3.545079861211152E-063
  -313.584437628099      -1.435580286451230E-062 -1.305459395309678E-062
  -312.791556622719       2.333113167427599E-062  3.717865610313781E-062
  -311.998675617338      -3.065349546089360E-062 -9.248279844479268E-062
  -311.205794611957       2.227653651950056E-062  2.093266183434020E-061
  -310.412913606576       3.934369366770038E-062 -4.382444370564160E-061
  -309.620032601196      -2.414930450339838E-061  8.530511457253511E-061
  -308.827151595815       7.681834967446372E-061 -1.539770342682770E-060
  -308.034270590434      -1.975395636635581E-060  2.547551808031708E-060
  -307.241389585053       4.492143142541573E-060 -3.755639948013711E-060
  -306.448508579672      -9.311240281710955E-060  4.577757693452036E-060
  -305.655627574292       1.775033221358077E-059 -3.389258437715075E-060
  -304.862746568911      -3.098885067684051E-059 -3.444679954095214E-060
  -304.069865563530       4.856453728169479E-059  2.295015622758504E-059
  -303.276984558149      -6.470164293958215E-059 -6.691016976103127E-059
  -302.484103552769       6.070202186944162E-059  1.516161504277267E-058
  -301.691222547388       8.748216947480394E-060 -2.917443462594807E-058
  -300.898341542007      -2.363846140314196E-058  4.787543345249896E-058
  -300.105460536626       7.855739367086487E-058 -6.246295166663694E-058
  -299.312579531245      -1.893910965818886E-057  4.366981140700326E-058
  -298.519698525865       3.792155616715206E-057  8.302275184785240E-058
  -297.726817520484      -6.378047396967051E-057 -4.813664627276496E-057
  -296.933936515103       8.290216791345055E-057  1.473016016207906E-056
  -296.141055509722      -4.660254986091812E-057 -3.625870480706475E-056
  -295.348174504342      -1.782022930824180E-056  7.825326548529933E-056
  -294.555293498961       9.089194916615107E-056 -1.521754563518252E-055
  -293.762412493580      -2.834997294737632E-055  2.676415745668012E-055
  -292.969531488199       7.342521788473819E-055 -4.187187001193248E-055
  -292.176650482818      -1.701968378170177E-054  5.507246442621188E-055
  -291.383769477438       3.633262201643762E-054 -4.887694394960835E-055
  -290.590888472057      -7.230642537970577E-054 -2.048150590989172E-055
  -289.798007466676       1.347258980774657E-053  2.496277204022871E-054
  -289.005126461295      -2.347977126585714E-053 -8.336324117066068E-054
  -288.212245455914       3.802528970912308E-053  2.135488486074160E-053
  -287.419364450534      -5.633566498158449E-053 -4.773853064969805E-053
  -286.626483445153       7.362807170429363E-053  9.695331058876115E-053
  -285.833602439772      -7.665782907041682E-053 -1.813794444895671E-052
  -285.040721434391       3.665180363046864E-053  3.128166044919993E-052
  -284.247840429011       1.000722536025072E-052 -4.920023623465058E-052
  -283.454959423630      -4.206789220487107E-052  6.847700651321747E-052
  -282.662078418249       1.043864019565487E-051 -7.759692219419427E-052
  -281.869197412868      -2.084413335818188E-051  4.922355443582046E-052
  -281.076316407487       3.537758282846446E-051  7.067385457675105E-052
  -280.283435402107      -5.001226474194772E-051 -3.738530788685267E-051
  -279.490554396726       5.100602251055933E-051  9.903090876051472E-051
  -278.697673391345      -4.475010620286520E-052 -2.050901567161113E-050
  -277.904792385964      -1.603630243051425E-050  3.552362359341540E-050
  -277.111911380583       5.741515859683109E-050 -5.007828211919730E-050
  -276.319030375203      -1.450829684284614E-049  4.674940076374506E-050
  -275.526149369822       3.092578288831536E-049  1.973748486942044E-050
  -274.733268364441      -5.830770712399336E-049 -2.501362999963121E-049
  -273.940387359060       9.809948354716226E-049  8.460585028289865E-049
  -273.147506353680      -1.444473956230008E-048 -2.176261394390216E-048
  -272.354625348299       1.726557470770186E-048  4.857544717802065E-048
  -271.561744342918      -1.172150212582824E-048 -9.820438475272842E-048
  -270.768863337537      -1.662790061512273E-048  1.828346671886464E-047
  -269.975982332156       9.607047088695902E-048 -3.148121989017612E-047
  -269.183101326776      -2.768317721541671E-047  4.987371422664633E-047
  -268.390220321395       6.395423944225256E-047 -7.141148845314060E-047
  -267.597339316014      -1.298433321283004E-046  8.828458996099105E-047
  -266.804458310633       2.386327820732883E-046 -8.158096618527639E-047
  -266.011577305253      -3.996660994849871E-046  1.374041725845987E-047
  -265.218696299872       6.041360781546000E-046  1.797714201155770E-046
  -264.425815294491      -7.966298149806264E-046 -5.945030816613870E-046
  -263.632934289110       8.261153776201047E-046  1.344479384397593E-045
  -262.840053283729      -3.739361403171148E-046 -2.508277236749446E-045
  -262.047172278349      -1.128962313453622E-045  3.990092680352086E-045
  -261.254291272968       4.546334619881375E-045 -5.229113965126729E-045
  -260.461410267587      -1.091520468079147E-044  4.673258942803418E-045
  -259.668529262206       2.088609073625157E-044  1.050948168586645E-045
  -258.875648256826      -3.320944660917247E-044 -1.823279029020110E-044
  -258.082767251445       4.139263652690277E-044  5.708474119565074E-044
  -257.289886246064      -2.719903404520161E-044 -1.316082457971563E-043
  -256.497005240683      -5.074256448603704E-044  2.558939357119433E-043
  -255.704124235302       2.749103808340316E-043 -4.320656493873128E-043
  -254.911243229922      -7.937771293776121E-043  6.214503621639839E-043
  -254.118362224541       1.849566245297261E-042 -6.857581571683538E-043
  -253.325481219160      -3.794537480103618E-042  2.800552938248337E-043
  -252.532600213779       7.061125866766902E-042  1.323125225357400E-042
  -251.739719208398      -1.201646895850056E-041 -5.492765403719726E-042
  -250.946838203018       1.858060594254716E-041  1.456732791226397E-041
  -250.153957197637      -2.542520102931355E-041 -3.216303611362571E-041
  -249.361076192256       2.851711005410604E-041  6.321430345149545E-041
  -248.568195186875      -1.878169594704285E-041 -1.132039686551126E-040
  -247.775314181495      -2.115067663643648E-041  1.855671206197501E-040
  -246.982433176114       1.205665353416249E-040 -2.755961809512978E-040
  -246.189552170733      -3.227633477829443E-040  3.584573722232867E-040
  -245.396671165352       6.810720364190866E-040 -3.685534438596208E-040
  -244.603790159971      -1.239656153528041E-039  1.684009257458845E-040
  -243.810909154591       1.982795039512199E-039  4.906032132149594E-040
  -243.018028149210      -2.726755909104449E-039 -2.002108561059390E-039
  -242.225147143829       2.918173666028784E-039  4.896281784398003E-039
  -241.432266138448      -1.297891807271405E-039 -9.706542153538403E-039
  -240.639385133067      -4.597379447330295E-039  1.655135018027676E-038
  -239.846504127687       1.906619237065529E-038 -2.414793545282726E-038
  -239.053623122306      -4.883346137434494E-038  2.779987540503753E-038
  -238.260742116925       1.031353274750241E-037 -1.568472380398492E-038
  -237.467861111544      -1.923076563780836E-037 -3.743128251065730E-038
  -236.674980106164       3.230538993444854E-037  1.799517089251447E-037
  -235.882099100783      -4.873792425538336E-037 -4.970970702324307E-037
  -235.089218095402       6.406670210615992E-037  1.127225671239811E-036
  -234.296337090021      -6.627011392218259E-037 -2.275868124069987E-036
  -233.503456084640       2.940720946495879E-037  4.215558636627315E-036
  -232.710575079260       9.592439144130822E-037 -7.248707323688706E-036
  -231.917694073879      -3.954584594821975E-036  1.159637091741950E-035
  -231.124813068498       1.005762134299837E-035 -1.715933625680224E-035
  -230.331932063117      -2.124538157031299E-035  2.308277576670529E-035
  -229.539051057737       4.003400901357764E-035 -2.705099951379199E-035
  -228.746170052356      -6.898150979900714E-035  2.426744391786429E-035
  -227.953289046975       1.093562078833849E-034 -6.182093970325703E-036
  -227.160408041594      -1.583750448584253E-034 -4.071380653442883E-035
  -226.367527036213       2.042612045981460E-034  1.351971288990841E-034
  -225.574646030833      -2.183920504093004E-034 -2.990138523979136E-034
  -224.781765025452       1.442934541648493E-034  5.488761271687641E-034
  -223.988884020071       1.153123555389972E-034 -8.777144205263957E-034
  -223.196003014690      -7.089889907488084E-034  1.217755530985172E-033
  -222.403122009309       1.834086330987641E-033 -1.375669569635058E-033
  -221.610241003929      -3.700358425871845E-033  9.289337105946299E-034
  -220.817359998548       6.422725245570988E-033  9.251300994187183E-034
  -220.024478993167      -9.783870667742709E-033 -5.567026717373625E-033
  -219.231597987786       1.278075834426971E-032  1.517806944965484E-032
  -218.438716982406      -1.284616811590173E-032 -3.292894750225973E-032
  -217.645835977025       4.636235628687505E-033  6.301098031107699E-032
  -216.852954971644       2.166606248051020E-032 -1.102880766412671E-031
  -216.060073966263      -8.241215390319640E-032  1.791929315410082E-031
  -215.267192960882       2.024719337187438E-031 -2.712578546915694E-031
  -214.474311955502      -4.162342900046596E-031  3.803808424587882E-031
  -213.681430950121       7.661868748186100E-031 -4.847683530531002E-031
  -212.888549944740      -1.297064885313312E-030  5.349188611209013E-031
  -212.095668939359       2.042769921295503E-030 -4.385760485781871E-031
  -211.302787933979      -3.002108304211438E-030  4.654342792265635E-032
  -210.509906928598       4.098500404247016E-030  8.525625136263435E-031
  -209.717025923217      -5.120043635491528E-030 -2.515259797651514E-030
  -208.924144917836       5.642335478396869E-030  5.183985268866954E-030
  -208.131263912455      -4.949986856376403E-030 -8.958897281824422E-030
  -207.338382907075       1.996462209495234E-030  1.357000694065762E-029
  -206.545501901694       4.521686407958732E-030 -1.802588118124570E-029
  -205.752620896313      -1.585026550236668E-029  2.014573558777772E-029
  -204.959739890932       3.243839661693007E-029 -1.605478039891032E-029
  -204.166858885551      -5.254092148513376E-029 -1.368313143357399E-031
  -203.373977880171       6.992290435169093E-029  3.601452073808572E-029
  -202.581096874790      -7.053084589604631E-029 -9.908480145803497E-029
  -201.788215869409       2.830860985187516E-029  1.922472215102701E-028
  -200.995334864028       9.900689064690457E-029 -3.046437999986216E-028
  -200.202453858648      -3.721286288200947E-028  3.954894774901955E-028
  -199.409572853267       8.667873462378727E-028 -3.682868746154884E-028
  -198.616691847886      -1.658661915221533E-027  3.350229186171159E-029
  -197.823810842505       2.788322020847218E-027  9.397011137885058E-028
  -197.030929837124      -4.196045713493205E-027 -3.076146145366001E-027
  -196.238048831744       5.616050664734200E-027  7.133850592659217E-027
  -195.445167826363      -6.421418526546081E-027 -1.409384225847222E-026
  -194.652286820982       5.415929912576939E-027  2.504242957595910E-026
  -193.859405815601      -5.827644292228087E-028 -4.087011819337872E-026
  -193.066524810221      -1.116266180975790E-026  6.171030834068648E-026
  -192.273643804840       3.408876483913678E-026 -8.606295797915736E-026
  -191.480762799459      -7.338170967039914E-026  1.095952835709466E-025
  -190.687881794078       1.341085392671872E-025 -1.237027886571567E-025
  -189.895000788697      -2.189222328383965E-025  1.141055141203570E-025
  -189.102119783317       3.240193528242336E-025 -6.011605449856517E-026
  -188.309238777936      -4.330403096050138E-025 -6.421945087014273E-026
  -187.516357772555       5.091211307783294E-025  2.851762873107017E-025
  -186.723476767174      -4.864115634857874E-025 -6.179080999273732E-025
  -185.930595761794       2.643715678015812E-025  1.045296695885051E-024
  -185.137714756413       2.886636083069541E-025 -1.484142558597426E-024
  -184.344833751032      -1.311642609850413E-024  1.737642354240335E-024
  -183.551952745651       2.889984512574544E-024 -1.437915640444710E-024
  -182.759071740270      -4.935011236877401E-024 -8.286636328540020E-027
  -181.966190734890       6.976128259215346E-024  3.441902761272780E-024
  -181.173309729509      -7.838076827450133E-024 -9.890027754019455E-024
  -180.380428724128       5.184947571684997E-024  2.033890262517602E-023
  -179.587547718747       5.061033384151406E-024 -3.522842399433650E-023
  -178.794666713366      -2.936373605027238E-023  5.353442034662322E-023
  -178.001785707986       7.711952905878694E-023 -7.131614223243155E-023
  -177.208904702605      -1.607786307669031E-022  7.967561404036249E-023
  -176.416023697224       2.949604822401359E-022 -6.221773623097209E-023
  -175.623142691843      -4.936673256830283E-022 -7.697255840101418E-024
  -174.830261686463       7.644680146136597E-022  1.693670297542705E-022
  -174.037380681082      -1.098652836838231E-021 -4.758933523057735E-022
  -173.244499675701       1.457096558442140E-021  9.923332694884038E-022
  -172.451618670320      -1.752887063306222E-021 -1.787731656067951E-021
  -171.658737664939       1.833502937378982E-021  2.916275440391098E-021
  -170.865856659559      -1.467654814027839E-021 -4.381951837314609E-021
  -170.072975654178       3.455631612160349E-022  6.082123147389849E-021
  -169.280094648797       1.893095651760219E-021 -7.729141314829347E-021
  -168.487213643416      -5.582741384919940E-021  8.756408018534912E-021
  -167.694332638036       1.088032075798592E-020 -8.227667996552253E-021
  -166.901451632655      -1.751011623070262E-020  4.787692449009707E-021
  -166.108570627274       2.438283018875101E-020  3.279872031728951E-021
  -165.315689621893      -2.908749830377717E-020 -1.778638409496784E-020
  -164.522808616512       2.729706196119713E-020  4.002327443565468E-020
  -163.729927611132      -1.219970945928016E-020 -6.962237004604635E-020
  -162.937046605751      -2.582726483067539E-020  1.026986688450144E-019
  -162.144165600370       9.895037507310146E-020 -1.291070381639994E-019
  -161.351284594989      -2.205260769284942E-019  1.287430943221944E-019
  -160.558403589608       4.020605731060182E-019 -6.704036601648550E-020
  -159.765522584228      -6.478878208154905E-019 -1.097676514862173E-019
  -158.972641578847       9.471619485915881E-019  4.783423121602620E-019
  -158.179760573466      -1.263152032993940E-018 -1.138523156205348E-018
  -157.386879568085       1.520283339073982E-018  2.206447736887117E-018
  -156.593998562705      -1.589697433109961E-018 -3.795663226593573E-018
  -155.801117557324       1.274587318023768E-018  5.981834860011048E-018
  -155.008236551943      -2.986252338955846E-019 -8.749816113020942E-018
  -154.215355546562      -1.693709421985485E-018  1.192708451913658E-017
  -153.422474541181       5.107881799442883E-018 -1.511214986976670E-017
  -152.629593535801      -1.031841063688459E-017  1.760928631358079E-017
  -151.836712530420       1.751646138382549E-017 -1.838576594117153E-017
  -151.043831525039      -2.647837742638555E-017  1.608039414805355E-017
  -150.250950519658       3.626634690741467E-017 -9.112203059586743E-018
  -149.458069514277      -4.489760367313748E-017 -4.042410795237366E-018
  -148.665188508897       4.905556207586334E-017  2.432711443215032E-017
  -147.872307503516      -4.397029159498480E-017 -5.127122186715623E-017
  -147.079426498135       2.366609125878116E-017  8.181586127794694E-017
  -146.286545492754       1.814770471025755E-017 -1.088518704196145E-016
  -145.493664487374      -8.619627854108258E-017  1.196517094295221E-016
  -144.700783481993       1.803850893858957E-016 -9.456922143086036E-017
  -143.907902476612      -2.908156668881958E-016  6.627942713800063E-018
  -143.115021471231       3.908497369745357E-016  1.771092192571781E-016
  -142.322140465850      -4.282878276703198E-016 -4.912703758768479E-016
  -141.529259460470       3.152268019080592E-016  9.638392644539570E-016
  -140.736378455089       8.204048109905499E-017 -1.602918680927869E-015
  -139.943497449708      -9.504487729963788E-016  2.378679255157783E-015
  -139.150616444327       2.530253285283600E-015 -3.202116572040078E-015
  -138.357735438947      -5.100233536320769E-015  3.903821893146006E-015
  -137.564854433566       8.937555492455080E-015 -4.216212798939106E-015
  -136.771973428185      -1.424218932049109E-014  3.760477333575998E-015
  -135.979092422804       2.102432117026654E-014 -2.037254456155546E-015
  -135.186211417423      -2.897082097915800E-014 -1.574573146673267E-015
  -134.393330412043       3.732343737410606E-014  7.788182941619091E-015
  -133.600449406662      -4.480210317811186E-014 -1.730451776175847E-014
  -132.807568401281       4.959304667670215E-014  3.059090647918272E-014
  -132.014687395900      -4.941691626683372E-014 -4.753466979987558E-014
  -131.221806390520       4.171353002254486E-014  6.701300200474735E-014
  -130.428925385139      -2.401146086524024E-014 -8.645974926905809E-014
  -129.636044379758      -5.439343022873357E-015  1.015381948293575E-013
  -128.843163374377       4.672264527680888E-014 -1.060621202344767E-013
  -128.050282368996      -9.701609536177873E-014  9.235112165100740E-014
  -127.257401363616       1.491732690259595E-013 -5.224723058343656E-014
  -126.464520358235      -1.903749200990062E-013 -2.096576412016333E-014
  -125.671639352854       2.012543224854503E-013  1.295373001073302E-013
  -124.878758347473      -1.560699850104361E-013 -2.670316390217370E-013
  -124.085877342092       2.464348773818317E-014  4.130400389397655E-013
  -123.292996336712       2.231571372968131E-013 -5.272653139953703E-013
  -122.500115331331      -6.097104314411668E-013  5.438395284937352E-013
  -121.707234325950       1.138406010827798E-012 -3.672356726645624E-013
  -120.914353320569      -1.779327051567778E-012 -1.283061358017978E-013
  -120.121472315189       2.453470227939159E-012  1.093298704451054E-012
  -119.328591309808      -3.018550848740064E-012 -2.688254946939341E-012
  -118.535710304427       3.260570748378526E-012  5.055886816412014E-012
  -117.742829299046      -2.895305998257011E-012 -8.276875489855317E-012
  -116.949948293665       1.582418079301351E-012  1.230894748388723E-011
  -116.157067288285       1.046321814171956E-012 -1.691641062308077E-011
  -115.364186282904      -5.341001872407892E-012  2.160737703984818E-011
  -114.571305277523       1.156025229379756E-011 -2.560233296719117E-011
  -113.778424272142      -1.975886916236851E-011  2.785497747935747E-011
  -112.985543266762       2.963501174889931E-011 -2.713761534661131E-011
  -112.192662261381      -4.035835858538962E-011  2.219838712054684E-011
  -111.399781256000       5.042431581132160E-011 -1.199898661654028E-011
  -110.606900250619      -5.759392776331463E-011 -3.959863256448240E-012
  -109.814019245238       5.898397385976217E-011  2.523281311845182E-011
  -109.021138239858      -5.137020594676510E-011 -4.998249921256653E-011
  -108.228257234477       3.175768655429235E-011  7.456970791268295E-011
  -107.435376229096       1.750566620675970E-012 -9.330408816684601E-011
  -106.642495223715      -4.879890925397761E-011  9.851683143480983E-011
  -105.849614218334       1.054185014617588E-010 -8.114044218469820E-011
  -105.056733212954      -1.626314652258050E-010  3.197725076828765E-011
  -104.263852207573       2.052952521143915E-010  5.620730914663065E-011
  -103.470971202192      -2.115662163525620E-010 -1.857339059428605E-010
  -102.678090196811       1.534406448553209E-010  3.503418739540045E-010
  -101.885209191431       1.140780845959177E-012 -5.311950595016823E-010
  -101.092328186050      -2.841883832364097E-010  6.932644175653224E-010
  -100.299447180669       7.212651498403658E-010 -7.831272589810453E-010
  -99.5065661752882      -1.322749665405405E-009  7.294898904525007E-010
  -98.7136851699074       2.073105101148368E-009 -4.477880485303260E-010
  -97.9208041645266      -2.919133599507510E-009 -1.501023967382309E-010
  -97.1279231591459       3.759215272801841E-009  1.140707207267264E-009
  -96.3350421537651      -4.436888171600633E-009 -2.568824796773837E-009
  -95.5421611483843       4.743285217027643E-009  4.423533111801857E-009
  -94.7492801430035      -4.433017678580427E-009 -6.612048184187277E-009
  -93.9563991376227       3.256615548030218E-009  8.934474003646799E-009
  -93.1635181322419      -1.010103984732015E-009 -1.106497906072349E-008
  -92.3706371268612      -2.400454475854403E-009  1.254788214277993E-008
  -91.5777561214804       6.884490347512838E-009 -1.281900388635591E-008
  -90.7848751160996      -1.209116137362895E-008  1.126230610928723E-008
  -89.9919941107188       1.734553367459389E-008 -7.309028848431352E-009
  -89.1991131053380      -2.161492639457199E-008  5.813552562343819E-010
  -88.4062320999573       2.352758975576473E-008  8.924873434644566E-009
  -87.6133510945765      -2.146721872489496E-008 -2.063360718756285E-008
  -86.8204700891957       1.376398212230451E-008  3.318481391608616E-008
  -86.0275890838149       1.005572851372589E-009 -4.427184859096982E-008
  -85.2347080784341      -2.361218824348062E-008  5.056835492639926E-008
  -84.4418270730533       5.368524040003995E-008 -4.779875270947780E-008
  -83.6489460676726      -8.919372683305938E-008  3.100494005900535E-008
  -82.8560650622918       1.259807046184486E-007  4.948731576274079E-009
  -82.0631840569110      -1.574661056402243E-007 -6.461042908354452E-008
  -81.2703030515302       1.746545894583974E-007  1.509228857660668E-007
  -80.4774220461494      -1.665838806769156E-007 -2.639966452292387E-007
  -79.6845410407687       1.213094662247854E-007  3.997688068172770E-007
  -78.8916600353879      -2.743870916164600E-008 -5.487189095786250E-007
  -78.0987790300071      -1.238746289600426E-007  6.949283048026525E-007
  -77.3058980246263       3.366340064437315E-007 -8.158930690692051E-007
  -76.5130170192455      -6.075678550251017E-007  8.835439744789070E-007
  -75.7201360138647       9.237293646251366E-007 -8.667952782832372E-007
  -74.9272550084840      -1.260404900963275E-006  7.356503341563261E-007
  -74.1343740031032       1.579847553065922E-006 -4.665792972552747E-007
  -73.3414929977224      -1.831581203446519E-006  4.867953088585722E-008
  -72.5486119923416       1.955051817869368E-006  5.099904142578014E-007
  -71.7557309869608      -1.885176601955436E-006 -1.176657843883091E-006
  -70.9628499815800       1.560933901918955E-006  1.889629512642251E-006
  -70.1699689761993      -9.366434578178653E-007 -2.556793862837196E-006
  -69.3770879708185      -4.943911640181847E-009  3.058051336393596E-006
  -68.5842069654377       1.239172290695798E-006 -3.252717577842777E-006
  -67.7913259600569      -2.687560959885998E-006  2.992498373302820E-006
  -66.9984449546761       4.209781129278379E-006 -2.139923155602284E-006
  -66.2055639492953      -5.602064586201744E-006  5.911921223166861E-007
  -65.4126829439146       6.604465824566811E-006  1.698663971720967E-006
  -64.6198019385338      -6.918902266355785E-006 -4.691434907634735E-006
  -63.8269209331530       6.238965199347461E-006  8.246080895194051E-006
  -63.0340399277722      -4.291075712386435E-006 -1.210790651180000E-005
  -62.2411589223914       8.845662715856748E-007  1.591017561283443E-005
  -61.4482779170106       4.034400698762970E-006 -1.919056365914411E-005
  -60.6553969116299      -1.033336486882350E-005  2.142342055391989E-005
  -59.8625159062491       1.765963010813125E-005 -2.206804374834094E-005
  -59.0696349008683      -2.543331069049832E-005  2.063328217982176E-005
  -58.2767538954875       3.287485331737149E-005 -1.675816233222760E-005
  -57.4838728901067      -3.906704137295860E-005  1.030387436446087E-005
  -56.6909918847260       4.304497032096924E-005 -1.443755454002181E-006
  -55.8981108793452      -4.390607287236061E-005 -9.270412354308272E-006
  -55.1052298739644       4.093441049939636E-005  2.088867702442169E-005
  -54.3123488685836      -3.373316231417128E-005 -3.210511421023769E-005
  -53.5194678632028       2.235340865570895E-005  4.136588589251739E-005
  -52.7265868578220      -7.399130401562681E-006 -4.703716499398216E-005
  -51.9337058524413      -9.916627726788550E-006  4.761954640112786E-005
  -51.1408248470605       2.778830042536545E-005 -4.198892982238518E-005
  -50.3479438416797      -4.392389404744467E-005  2.963692072441950E-005
  -49.5550628362989       5.574619805473754E-005 -1.087753713310774E-005
  -48.7621818309181      -6.068072618249187E-005 -1.301649225077728E-005
  -47.9693008255373       5.650682927474222E-005  3.978336988410368E-005
  -47.1764198201566      -4.173384397947471E-005 -6.627631457169056E-005
  -46.3835388147758       1.595243838264346E-005  8.871748415196277E-005
  -45.5906578093950       1.989493371102950E-005 -1.030985740013991E-004
  -44.7977768040142      -6.337897056143687E-005  1.057022622501475E-004
  -44.0048957986334       1.106275667602703E-004 -9.369369801264336E-005
  -43.2120147932526      -1.565735259737876E-004  6.570627956644848E-005
  -42.4191337878719       1.954069724178542E-004 -2.232495758644764E-005
  -41.6262527824911      -2.212116065431695E-004 -3.363910613964775E-005
  -40.8333717771103       2.287463776343018E-004  9.717455821438643E-005
  -40.0404907717295      -2.143131458434413E-004 -1.614420232624156E-004
  -39.2476097663487       1.766118056927238E-004  2.184686834107723E-004
  -38.4547287609680      -1.174283424814064E-004 -2.600833939777074E-004
  -37.6618477555872       4.196497037993932E-005  2.789932470980158E-004
  -36.8689667502064       4.134807394323896E-005 -2.699129319931594E-004
  -36.0760857448256      -1.216200373214220E-004  2.306500717223694E-004
  -35.2832047394448       1.867905870651270E-004 -1.630040204375974E-004
  -34.4903237340640      -2.253035062107549E-004  7.328825790326330E-005
  -33.6974427286833       2.279738568220549E-004  2.771410892808528E-005
  -32.9045617233025      -1.898256346608533E-004 -1.254923064465061E-004
  -32.1116807179217       1.116494689397052E-004  2.032765992450099E-004
  -31.3187997125409      -1.020282511447869E-006 -2.441459350525261E-004
  -30.5259187071601      -1.274603212038525E-004  2.335718597659985E-004
  -29.7330377017793       2.528641170811892E-004 -1.620959598970750E-004
  -28.9401566963986      -3.496370064746002E-004  2.776452340133306E-005
  -28.1472756910178       3.902209061311212E-004  1.620917068981430E-004
  -27.3543946856370      -3.483711085843503E-004 -3.901343918496941E-004
  -26.5615136802562       2.028182012588755E-004  6.296915130507584E-004
  -25.7686326748754       5.914326268583243E-005 -8.470519641780782E-004
  -24.9757516694946      -4.385274609470066E-004  1.005414563694592E-003
  -24.1828706641139       9.222441497799933E-004 -1.070215837778636E-003
  -23.3899896587331      -1.481499132736222E-003  1.015070821982202E-003
  -22.5971086533523       2.071185716131562E-003 -8.269352864806966E-004
  -21.8042276479715      -2.631039247719028E-003  5.087321435345794E-004
  -21.0113466425907       3.090226421170786E-003 -7.836987459876041E-005
  -20.2184656372100      -3.377002315350266E-003 -4.348160145132940E-004
  -19.4255846318292       3.432698113184596E-003  9.930948162194140E-004
  -18.6327036264484      -3.225589597056565E-003 -1.550455410051686E-003
  -17.8398226210676       2.758960058962814E-003  2.051266230739233E-003
  -17.0469416156868      -2.071018893731123E-003 -2.431937136164014E-003
  -16.2540606103060       1.229015673539517E-003  2.628509008613727E-003
  -15.4611796049253      -3.213013436090874E-004 -2.588776031990685E-003
  -14.6682985995445      -5.508977875912046E-004  2.284871101412101E-003
  -13.8754175941637       1.282372133229252E-003 -1.722711010838471E-003
  -13.0825365887829      -1.774216354761077E-003  9.465376376812773E-004
  -12.2896555834021       1.945330273758759E-003 -3.821591087944973E-005
  -11.4967745780213      -1.743968466744974E-003 -8.883704686759152E-004
  -10.7038935726406       1.157683436368367E-003  1.697129514213162E-003
  -9.91101256725978      -2.199963711666509E-004 -2.242721522252699E-003
  -9.11813156187900      -9.875862054443299E-004  2.385192936436276E-003
  -8.32525055649822       2.339181852072703E-003 -2.004418978667800E-003
  -7.53236955111743      -3.674357619700884E-003  1.012281075383910E-003
  -6.73948854573665       4.814565495632714E-003  6.393136037418642E-004
  -5.94660754035587      -5.586653185025569E-003 -2.955507664784357E-003
  -5.15372653497509       5.853913770489007E-003  5.899242844267029E-003
  -4.36084552959430      -5.553586005062379E-003 -9.390023905307859E-003
  -3.56796452421352       4.733536428327839E-003  1.329039290091219E-002
  -2.77508351883274      -3.567854749588430E-003 -1.737148915621326E-002
  -1.98220251345196       2.318881687859578E-003  2.126859174057331E-002
  -1.18932150807117      -1.227265047538530E-003 -2.447485537070069E-002
 -0.396440502690391       3.734935768006433E-004  2.643761778197179E-002
  0.396440502690391       3.734935768006433E-004 -2.643761778197179E-002
   1.18932150807117      -1.227265047538530E-003  2.447485537070069E-002
   1.98220251345196       2.318881687859578E-003 -2.126859174057331E-002
   2.77508351883274      -3.567854749588430E-003  1.737148915621326E-002
   3.56796452421352       4.733536428327839E-003 -1.329039290091219E-002
   4.36084552959430      -5.553586005062379E-003  9.390023905307859E-003
   5.15372653497509       5.853913770489007E-003 -5.899242844267029E-003
   5.94660754035587      -5.586653185025569E-003  2.955507664784357E-003
   6.73948854573665       4.814565495632714E-003 -6.393136037418642E-004
   7.53236955111743      -3.674357619700884E-003 -1.012281075383910E-003
   8.32525055649822       2.339181852072703E-003  2.004418978667800E-003
   9.11813156187900      -9.875862054443299E-004 -2.385192936436276E-003
   9.91101256725978      -2.199963711666509E-004  2.242721522252699E-003
   10.7038935726406       1.157683436368367E-003 -1.697129514213162E-003
   11.4967745780213      -1.743968466744974E-003  8.883704686759152E-004
   12.2896555834021       1.945330273758759E-003  3.821591087944973E-005
   13.0825365887829      -1.774216354761077E-003 -9.465376376812773E-004
   13.8754175941637       1.282372133229252E-003  1.722711010838471E-003
   14.6682985995445      -5.508977875912046E-004 -2.284871101412101E-003
   15.4611796049253      -3.213013436090874E-004  2.588776031990685E-003
   16.2540606103060       1.229015673539517E-003 -2.628509008613727E-003
   17.0469416156868      -2.071018893731123E-003  2.431937136164014E-003
   17.8398226210676       2.758960058962814E-003 -2.051266230739233E-003
   18.6327036264484      -3.225589597056565E-003  1.550455410051686E-003
   19.4255846318292       3.432698113184596E-003 -9.930948162194140E-004
   20.2184656372100      -3.377002315350266E-003  4.348160145132940E-004
   21.0113466425907       3.090226421170786E-003  7.836987459876041E-005
   21.8042276479715      -2.631039247719028E-003 -5.087321435345794E-004
   22.5971086533523       2.071185716131562E-003  8.269352864806966E-004
   23.3899896587331      -1.481499132736222E-003 -1.015070821982202E-003
   24.1828706641139       9.222441497799933E-004  1.070215837778636E-003
   24.9757516694946      -4.385274609470066E-004 -1.005414563694592E-003
   25.7686326748754       5.914326268583243E-005  8.470519641780782E-004
   26.5615136802562       2.028182012588755E-004 -6.296915130507584E-004
   27.3543946856370      -3.483711085843503E-004  3.901343918496941E-004
   28.1472756910178       3.902209061311212E-004 -1.620917068981430E-004
   28.9401566963986      -3.496370064746002E-004 -2.776452340133306E-005
   29.7330377017793       2.528641170811892E-004  1.620959598970750E-004
   30.5259187071601      -1.274603212038525E-004 -2.335718597659985E-004
   31.3187997125409      -1.020282511447869E-006  2.441459350525261E-004
   32.1116807179217       1.116494689397052E-004 -2.032765992450099E-004
   32.9045617233025      -1.898256346608533E-004  1.254923064465061E-004
   33.6974427286833       2.279738568220549E-004 -2.771410892808528E-005
   34.4903237340640      -2.253035062107549E-004 -7.328825790326330E-005
   35.2832047394448       1.867905870651270E-004  1.630040204375974E-004
   36.0760857448256      -1.216200373214220E-004 -2.306500717223694E-004
   36.8689667502064       4.134807394323896E-005  2.699129319931594E-004
   37.6618477555872       4.196497037993932E-005 -2.789932470980158E-004
   38.4547287609680      -1.174283424814064E-004  2.600833939777074E-004
   39.2476097663487       1.766118056927238E-004 -2.184686834107723E-004
   40.0404907717295      -2.143131458434413E-004  1.614420232624156E-004
   40.8333717771103       2.287463776343018E-004 -9.717455821438643E-005
   41.6262527824911      -2.212116065431695E-004  3.363910613964775E-005
   42.4191337878719       1.954069724178542E-004  2.232495758644764E-005
   43.2120147932526      -1.565735259737876E-004 -6.570627956644848E-005
   44.0048957986334       1.106275667602703E-004  9.369369801264336E-005
   44.7977768040142      -6.337897056143687E-005 -1.057022622501475E-004
   45.5906578093950       1.989493371102950E-005  1.030985740013991E-004
   46.3835388147758       1.595243838264346E-005 -8.871748415196277E-005
   47.1764198201566      -4.173384397947471E-005  6.627631457169056E-005
   47.9693008255373       5.650682927474222E-005 -3.978336988410368E-005
   48.7621818309181      -6.068072618249187E-005  1.301649225077728E-005
   49.5550628362989       5.574619805473754E-005  1.087753713310774E-005
   50.3479438416797      -4.392389404744467E-005 -2.963692072441950E-005
   51.1408248470605       2.778830042536545E-005  4.198892982238518E-005
   51.9337058524412      -9.916627726788550E-006 -4.761954640112786E-005
   52.7265868578220      -7.399130401562681E-006  4.703716499398216E-005
   53.5194678632028       2.235340865570895E-005 -4.136588589251739E-005
   54.3123488685836      -3.373316231417128E-005  3.210511421023769E-005
   55.1052298739644       4.093441049939636E-005 -2.088867702442169E-005
   55.8981108793452      -4.390607287236061E-005  9.270412354308272E-006
   56.6909918847259       4.304497032096924E-005  1.443755454002181E-006
   57.4838728901067      -3.906704137295860E-005 -1.030387436446087E-005
   58.2767538954875       3.287485331737149E-005  1.675816233222760E-005
   59.0696349008683      -2.543331069049832E-005 -2.063328217982176E-005
   59.8625159062491       1.765963010813125E-005  2.206804374834094E-005
   60.6553969116299      -1.033336486882350E-005 -2.142342055391989E-005
   61.4482779170106       4.034400698762970E-006  1.919056365914411E-005
   62.2411589223914       8.845662715856748E-007 -1.591017561283443E-005
   63.0340399277722      -4.291075712386435E-006  1.210790651180000E-005
   63.8269209331530       6.238965199347461E-006 -8.246080895194051E-006
   64.6198019385338      -6.918902266355785E-006  4.691434907634735E-006
   65.4126829439146       6.604465824566811E-006 -1.698663971720967E-006
   66.2055639492953      -5.602064586201744E-006 -5.911921223166861E-007
   66.9984449546761       4.209781129278379E-006  2.139923155602284E-006
   67.7913259600569      -2.687560959885998E-006 -2.992498373302820E-006
   68.5842069654377       1.239172290695798E-006  3.252717577842777E-006
   69.3770879708185      -4.943911640181847E-009 -3.058051336393596E-006
   70.1699689761992      -9.366434578178653E-007  2.556793862837196E-006
   70.9628499815800       1.560933901918955E-006 -1.889629512642251E-006
   71.7557309869608      -1.885176601955436E-006  1.176657843883091E-006
   72.5486119923416       1.955051817869368E-006 -5.099904142578014E-007
   73.3414929977224      -1.831581203446519E-006 -4.867953088585722E-008
   74.1343740031032       1.579847553065922E-006  4.665792972552747E-007
   74.9272550084840      -1.260404900963275E-006 -7.356503341563261E-007
   75.7201360138647       9.237293646251366E-007  8.667952782832372E-007
   76.5130170192455      -6.075678550251017E-007 -8.835439744789070E-007
   77.3058980246263       3.366340064437315E-007  8.158930690692051E-007
   78.0987790300071      -1.238746289600426E-007 -6.949283048026525E-007
   78.8916600353879      -2.743870916164600E-008  5.487189095786250E-007
   79.6845410407687       1.213094662247854E-007 -3.997688068172770E-007
   80.4774220461494      -1.665838806769156E-007  2.639966452292387E-007
   81.2703030515302       1.746545894583974E-007 -1.509228857660668E-007
   82.0631840569110      -1.574661056402243E-007  6.461042908354452E-008
   82.8560650622918       1.259807046184486E-007 -4.948731576274079E-009
   83.6489460676726      -8.919372683305938E-008 -3.100494005900535E-008
   84.4418270730533       5.368524040003995E-008  4.779875270947780E-008
   85.2347080784341      -2.361218824348062E-008 -5.056835492639926E-008
   86.0275890838149       1.005572851372589E-009  4.427184859096982E-008
   86.8204700891957       1.376398212230451E-008 -3.318481391608616E-008
   87.6133510945765      -2.146721872489496E-008  2.063360718756285E-008
   88.4062320999573       2.352758975576473E-008 -8.924873434644566E-009
   89.1991131053380      -2.161492639457199E-008 -5.813552562343819E-010
   89.9919941107188       1.734553367459389E-008  7.309028848431352E-009
   90.7848751160996      -1.209116137362895E-008 -1.126230610928723E-008
   91.5777561214804       6.884490347512838E-009  1.281900388635591E-008
   92.3706371268612      -2.400454475854403E-009 -1.254788214277993E-008
   93.1635181322419      -1.010103984732015E-009  1.106497906072349E-008
   93.9563991376227       3.256615548030218E-009 -8.934474003646799E-009
   94.7492801430035      -4.433017678580427E-009  6.612048184187277E-009
   95.5421611483843       4.743285217027643E-009 -4.423533111801857E-009
   96.3350421537651      -4.436888171600633E-009  2.568824796773837E-009
   97.1279231591459       3.759215272801841E-009 -1.140707207267264E-009
   97.9208041645266      -2.919133599507510E-009  1.501023967382309E-010
   98.7136851699074       2.073105101148368E-009  4.477880485303260E-010
   99.5065661752882      -1.322749665405405E-009 -7.294898904525007E-010
   100.299447180669       7.212651498403658E-010  7.831272589810453E-010
   101.092328186050      -2.841883832364097E-010 -6.932644175653224E-010
   101.885209191431       1.140780845959177E-012  5.311950595016823E-010
   102.678090196811       1.534406448553209E-010 -3.503418739540045E-010
   103.470971202192      -2.115662163525620E-010  1.857339059428605E-010
   104.263852207573       2.052952521143915E-010 -5.620730914663065E-011
   105.056733212954      -1.626314652258050E-010 -3.197725076828765E-011
   105.849614218334       1.054185014617588E-010  8.114044218469820E-011
   106.642495223715      -4.879890925397761E-011 -9.851683143480983E-011
   107.435376229096       1.750566620675970E-012  9.330408816684601E-011
   108.228257234477       3.175768655429235E-011 -7.456970791268295E-011
   109.021138239858      -5.137020594676510E-011  4.998249921256653E-011
   109.814019245238       5.898397385976217E-011 -2.523281311845182E-011
   110.606900250619      -5.759392776331463E-011  3.959863256448240E-012
   111.399781256000       5.042431581132160E-011  1.199898661654028E-011
   112.192662261381      -4.035835858538962E-011 -2.219838712054684E-011
   112.985543266762       2.963501174889931E-011  2.713761534661131E-011
   113.778424272142      -1.975886916236851E-011 -2.785497747935747E-011
   114.571305277523       1.156025229379756E-011  2.560233296719117E-011
   115.364186282904      -5.341001872407892E-012 -2.160737703984818E-011
   116.157067288285       1.046321814171956E-012  1.691641062308077E-011
   116.949948293665       1.582418079301351E-012 -1.230894748388723E-011
   117.742829299046      -2.895305998257011E-012  8.276875489855317E-012
   118.535710304427       3.260570748378526E-012 -5.055886816412014E-012
   119.328591309808      -3.018550848740064E-012  2.688254946939341E-012
   120.121472315189       2.453470227939159E-012 -1.093298704451054E-012
   120.914353320569      -1.779327051567778E-012  1.283061358017978E-013
   121.707234325950       1.138406010827798E-012  3.672356726645624E-013
   122.500115331331      -6.097104314411668E-013 -5.438395284937352E-013
   123.292996336712       2.231571372968131E-013  5.272653139953703E-013
   124.085877342092       2.464348773818317E-014 -4.130400389397655E-013
   124.878758347473      -1.560699850104361E-013  2.670316390217370E-013
   125.671639352854       2.012543224854503E-013 -1.295373001073302E-013
   126.464520358235      -1.903749200990062E-013  2.096576412016333E-014
   127.257401363616       1.491732690259595E-013  5.224723058343656E-014
   128.050282368996      -9.701609536177873E-014 -9.235112165100740E-014
   128.843163374377       4.672264527680888E-014  1.060621202344767E-013
   129.636044379758      -5.439343022873357E-015 -1.015381948293575E-013
   130.428925385139      -2.401146086524024E-014  8.645974926905809E-014
   131.221806390520       4.171353002254486E-014 -6.701300200474735E-014
   132.014687395900      -4.941691626683372E-014  4.753466979987558E-014
   132.807568401281       4.959304667670215E-014 -3.059090647918272E-014
   133.600449406662      -4.480210317811186E-014  1.730451776175847E-014
   134.393330412043       3.732343737410606E-014 -7.788182941619091E-015
   135.186211417423      -2.897082097915800E-014  1.574573146673267E-015
   135.979092422804       2.102432117026654E-014  2.037254456155546E-015
   136.771973428185      -1.424218932049109E-014 -3.760477333575998E-015
   137.564854433566       8.937555492455080E-015  4.216212798939106E-015
   138.357735438947      -5.100233536320769E-015 -3.903821893146006E-015
   139.150616444327       2.530253285283600E-015  3.202116572040078E-015
   139.943497449708      -9.504487729963788E-016 -2.378679255157783E-015
   140.736378455089       8.204048109905499E-017  1.602918680927869E-015
   141.529259460470       3.152268019080592E-016 -9.638392644539570E-016
   142.322140465850      -4.282878276703198E-016  4.912703758768479E-016
   143.115021471231       3.908497369745357E-016 -1.771092192571781E-016
   143.907902476612      -2.908156668881958E-016 -6.627942713800063E-018
   144.700783481993       1.803850893858957E-016  9.456922143086036E-017
   145.493664487374      -8.619627854108258E-017 -1.196517094295221E-016
   146.286545492754       1.814770471025755E-017  1.088518704196145E-016
   147.079426498135       2.366609125878116E-017 -8.181586127794694E-017
   147.872307503516      -4.397029159498480E-017  5.127122186715623E-017
   148.665188508897       4.905556207586334E-017 -2.432711443215032E-017
   149.458069514277      -4.489760367313748E-017  4.042410795237366E-018
   150.250950519658       3.626634690741467E-017  9.112203059586743E-018
   151.043831525039      -2.647837742638555E-017 -1.608039414805355E-017
   151.836712530420       1.751646138382549E-017  1.838576594117153E-017
   152.629593535801      -1.031841063688459E-017 -1.760928631358079E-017
   153.422474541181       5.107881799442883E-018  1.511214986976670E-017
   154.215355546562      -1.693709421985485E-018 -1.192708451913658E-017
   155.008236551943      -2.986252338955846E-019  8.749816113020942E-018
   155.801117557324       1.274587318023768E-018 -5.981834860011048E-018
   156.593998562705      -1.589697433109961E-018  3.795663226593573E-018
   157.386879568085       1.520283339073982E-018 -2.206447736887117E-018
   158.179760573466      -1.263152032993940E-018  1.138523156205348E-018
   158.972641578847       9.471619485915881E-019 -4.783423121602620E-019
   159.765522584228      -6.478878208154905E-019  1.097676514862173E-019
   160.558403589608       4.020605731060182E-019  6.704036601648550E-020
   161.351284594989      -2.205260769284942E-019 -1.287430943221944E-019
   162.144165600370       9.895037507310146E-020  1.291070381639994E-019
   162.937046605751      -2.582726483067539E-020 -1.026986688450144E-019
   163.729927611132      -1.219970945928016E-020  6.962237004604635E-020
   164.522808616512       2.729706196119713E-020 -4.002327443565468E-020
   165.315689621893      -2.908749830377717E-020  1.778638409496784E-020
   166.108570627274       2.438283018875101E-020 -3.279872031728951E-021
   166.901451632655      -1.751011623070262E-020 -4.787692449009707E-021
   167.694332638036       1.088032075798592E-020  8.227667996552253E-021
   168.487213643416      -5.582741384919940E-021 -8.756408018534912E-021
   169.280094648797       1.893095651760219E-021  7.729141314829347E-021
   170.072975654178       3.455631612160349E-022 -6.082123147389849E-021
   170.865856659559      -1.467654814027839E-021  4.381951837314609E-021
   171.658737664939       1.833502937378982E-021 -2.916275440391098E-021
   172.451618670320      -1.752887063306222E-021  1.787731656067951E-021
   173.244499675701       1.457096558442140E-021 -9.923332694884038E-022
   174.037380681082      -1.098652836838231E-021  4.758933523057735E-022
   174.830261686463       7.644680146136597E-022 -1.693670297542705E-022
   175.623142691843      -4.936673256830283E-022  7.697255840101418E-024
   176.416023697224       2.949604822401359E-022  6.221773623097209E-023
   177.208904702605      -1.607786307669031E-022 -7.967561404036249E-023
   178.001785707986       7.711952905878694E-023  7.131614223243155E-023
   178.794666713366      -2.936373605027238E-023 -5.353442034662322E-023
   179.587547718747       5.061033384151406E-024  3.522842399433650E-023
   180.380428724128       5.184947571684997E-024 -2.033890262517602E-023
   181.173309729509      -7.838076827450133E-024  9.890027754019455E-024
   181.966190734890       6.976128259215346E-024 -3.441902761272780E-024
   182.759071740270      -4.935011236877401E-024  8.286636328540020E-027
   183.551952745651       2.889984512574544E-024  1.437915640444710E-024
   184.344833751032      -1.311642609850413E-024 -1.737642354240335E-024
   185.137714756413       2.886636083069541E-025  1.484142558597426E-024
   185.930595761794       2.643715678015812E-025 -1.045296695885051E-024
   186.723476767174      -4.864115634857874E-025  6.179080999273732E-025
   187.516357772555       5.091211307783294E-025 -2.851762873107017E-025
   188.309238777936      -4.330403096050138E-025  6.421945087014273E-026
   189.102119783317       3.240193528242336E-025  6.011605449856517E-026
   189.895000788697      -2.189222328383965E-025 -1.141055141203570E-025
   190.687881794078       1.341085392671872E-025  1.237027886571567E-025
   191.480762799459      -7.338170967039914E-026 -1.095952835709466E-025
   192.273643804840       3.408876483913678E-026  8.606295797915736E-026
   193.066524810221      -1.116266180975790E-026 -6.171030834068648E-026
   193.859405815601      -5.827644292228087E-028  4.087011819337872E-026
   194.652286820982       5.415929912576939E-027 -2.504242957595910E-026
   195.445167826363      -6.421418526546081E-027  1.409384225847222E-026
   196.238048831744       5.616050664734200E-027 -7.133850592659217E-027
   197.030929837124      -4.196045713493205E-027  3.076146145366001E-027
   197.823810842505       2.788322020847218E-027 -9.397011137885058E-028
   198.616691847886      -1.658661915221533E-027 -3.350229186171159E-029
   199.409572853267       8.667873462378727E-028  3.682868746154884E-028
   200.202453858648      -3.721286288200947E-028 -3.954894774901955E-028
   200.995334864028       9.900689064690457E-029  3.046437999986216E-028
   201.788215869409       2.830860985187516E-029 -1.922472215102701E-028
   202.581096874790      -7.053084589604631E-029  9.908480145803497E-029
   203.373977880171       6.992290435169093E-029 -3.601452073808572E-029
   204.166858885551      -5.254092148513376E-029  1.368313143357399E-031
   204.959739890932       3.243839661693007E-029  1.605478039891032E-029
   205.752620896313      -1.585026550236668E-029 -2.014573558777772E-029
   206.545501901694       4.521686407958732E-030  1.802588118124570E-029
   207.338382907075       1.996462209495234E-030 -1.357000694065762E-029
   208.131263912455      -4.949986856376403E-030  8.958897281824422E-030
   208.924144917836       5.642335478396869E-030 -5.183985268866954E-030
   209.717025923217      -5.120043635491528E-030  2.515259797651514E-030
   210.509906928598       4.098500404247016E-030 -8.525625136263435E-031
   211.302787933979      -3.002108304211438E-030 -4.654342792265635E-032
   212.095668939359       2.042769921295503E-030  4.385760485781871E-031
   212.888549944740      -1.297064885313312E-030 -5.349188611209013E-031
   213.681430950121       7.661868748186100E-031  4.847683530531002E-031
   214.474311955502      -4.162342900046596E-031 -3.803808424587882E-031
   215.267192960882       2.024719337187438E-031  2.712578546915694E-031
   216.060073966263      -8.241215390319640E-032 -1.791929315410082E-031
   216.852954971644       2.166606248051020E-032  1.102880766412671E-031
   217.645835977025       4.636235628687505E-033 -6.301098031107699E-032
   218.438716982406      -1.284616811590173E-032  3.292894750225973E-032
   219.231597987786       1.278075834426971E-032 -1.517806944965484E-032
   220.024478993167      -9.783870667742709E-033  5.567026717373625E-033
   220.817359998548       6.422725245570988E-033 -9.251300994187183E-034
   221.610241003929      -3.700358425871845E-033 -9.289337105946299E-034
   222.403122009309       1.834086330987641E-033  1.375669569635058E-033
   223.196003014690      -7.089889907488084E-034 -1.217755530985172E-033
   223.988884020071       1.153123555389972E-034  8.777144205263957E-034
   224.781765025452       1.442934541648493E-034 -5.488761271687641E-034
   225.574646030833      -2.183920504093004E-034  2.990138523979136E-034
   226.367527036213       2.042612045981460E-034 -1.351971288990841E-034
   227.160408041594      -1.583750448584253E-034  4.071380653442883E-035
   227.953289046975       1.093562078833849E-034  6.182093970325703E-036
   228.746170052356      -6.898150979900714E-035 -2.426744391786429E-035
   229.539051057737       4.003400901357764E-035  2.705099951379199E-035
   230.331932063117      -2.124538157031299E-035 -2.308277576670529E-035
   231.124813068498       1.005762134299837E-035  1.715933625680224E-035
   231.917694073879      -3.954584594821975E-036 -1.159637091741950E-035
   232.710575079260       9.592439144130822E-037  7.248707323688706E-036
   233.503456084640       2.940720946495879E-037 -4.215558636627315E-036
   234.296337090021      -6.627011392218259E-037  2.275868124069987E-036
   235.089218095402       6.406670210615992E-037 -1.127225671239811E-036
   235.882099100783      -4.873792425538336E-037  4.970970702324307E-037
   236.674980106164       3.230538993444854E-037 -1.799517089251447E-037
   237.467861111544      -1.923076563780836E-037  3.743128251065730E-038
   238.260742116925       1.031353274750241E-037  1.568472380398492E-038
   239.053623122306      -4.883346137434494E-038 -2.779987540503753E-038
   239.846504127687       1.906619237065529E-038  2.414793545282726E-038
   240.639385133067      -4.597379447330295E-039 -1.655135018027676E-038
   241.432266138448      -1.297891807271405E-039  9.706542153538403E-039
   242.225147143829       2.918173666028784E-039 -4.896281784398003E-039
   243.018028149210      -2.726755909104449E-039  2.002108561059390E-039
   243.810909154591       1.982795039512199E-039 -4.906032132149594E-040
   244.603790159971      -1.239656153528041E-039 -1.684009257458845E-040
   245.396671165352       6.810720364190866E-040  3.685534438596208E-040
   246.189552170733      -3.227633477829443E-040 -3.584573722232867E-040
   246.982433176114       1.205665353416249E-040  2.755961809512978E-040
   247.775314181495      -2.115067663643648E-041 -1.855671206197501E-040
   248.568195186875      -1.878169594704285E-041  1.132039686551126E-040
   249.361076192256       2.851711005410604E-041 -6.321430345149545E-041
   250.153957197637      -2.542520102931355E-041  3.216303611362571E-041
   250.946838203018       1.858060594254716E-041 -1.456732791226397E-041
   251.739719208398      -1.201646895850056E-041  5.492765403719726E-042
   252.532600213779       7.061125866766902E-042 -1.323125225357400E-042
   253.325481219160      -3.794537480103618E-042 -2.800552938248337E-043
   254.118362224541       1.849566245297261E-042  6.857581571683538E-043
   254.911243229922      -7.937771293776121E-043 -6.214503621639839E-043
   255.704124235302       2.749103808340316E-043  4.320656493873128E-043
   256.497005240683      -5.074256448603704E-044 -2.558939357119433E-043
   257.289886246064      -2.719903404520161E-044  1.316082457971563E-043
   258.082767251445       4.139263652690277E-044 -5.708474119565074E-044
   258.875648256826      -3.320944660917247E-044  1.823279029020110E-044
   259.668529262206       2.088609073625157E-044 -1.050948168586645E-045
   260.461410267587      -1.091520468079147E-044 -4.673258942803418E-045
   261.254291272968       4.546334619881375E-045  5.229113965126729E-045
   262.047172278349      -1.128962313453622E-045 -3.990092680352086E-045
   262.840053283729      -3.739361403171148E-046  2.508277236749446E-045
   263.632934289110       8.261153776201047E-046 -1.344479384397593E-045
   264.425815294491      -7.966298149806264E-046  5.945030816613870E-046
   265.218696299872       6.041360781546000E-046 -1.797714201155770E-046
   266.011577305253      -3.996660994849871E-046 -1.374041725845987E-047
   266.804458310633       2.386327820732883E-046  8.158096618527639E-047
   267.597339316014      -1.298433321283004E-046 -8.828458996099105E-047
   268.390220321395       6.395423944225256E-047  7.141148845314060E-047
   269.183101326776      -2.768317721541671E-047 -4.987371422664633E-047
   269.975982332156       9.607047088695902E-048  3.148121989017612E-047
   270.768863337537      -1.662790061512273E-048 -1.828346671886464E-047
   271.561744342918      -1.172150212582824E-048  9.820438475272842E-048
   272.354625348299       1.726557470770186E-048 -4.857544717802065E-048
   273.147506353680      -1.444473956230008E-048  2.176261394390216E-048
   273.940387359060       9.809948354716226E-049 -8.460585028289865E-049
   274.733268364441      -5.830770712399336E-049  2.501362999963121E-049
   275.526149369822       3.092578288831536E-049 -1.973748486942044E-050
   276.319030375203      -1.450829684284614E-049 -4.674940076374506E-050
   277.111911380583       5.741515859683109E-050  5.007828211919730E-050
   277.904792385964      -1.603630243051425E-050 -3.552362359341540E-050
   278.697673391345      -4.475010620286520E-052  2.050901567161113E-050
   279.490554396726       5.100602251055933E-051 -9.903090876051472E-051
   280.283435402107      -5.001226474194772E-051  3.738530788685267E-051
   281.076316407487       3.537758282846446E-051 -7.067385457675105E-052
   281.869197412868      -2.084413335818188E-051 -4.922355443582046E-052
   282.662078418249       1.043864019565487E-051  7.759692219419427E-052
   283.454959423630      -4.206789220487107E-052 -6.847700651321747E-052
   284.247840429011       1.000722536025072E-052  4.920023623465058E-052
   285.040721434391       3.665180363046864E-053 -3.128166044919993E-052
   285.833602439772      -7.665782907041682E-053  1.813794444895671E-052
   286.626483445153       7.362807170429363E-053 -9.695331058876115E-053
   287.419364450534      -5.633566498158449E-053  4.773853064969805E-053
   288.212245455914       3.802528970912308E-053 -2.135488486074160E-053
   289.005126461295      -2.347977126585714E-053  8.336324117066068E-054
   289.798007466676       1.347258980774657E-053 -2.496277204022871E-054
   290.590888472057      -7.230642537970577E-054  2.048150590989172E-055
   291.383769477438       3.633262201643762E-054  4.887694394960835E-055
   292.176650482818      -1.701968378170177E-054 -5.507246442621188E-055
   292.969531488199       7.342521788473819E-055  4.187187001193248E-055
   293.762412493580      -2.834997294737632E-055 -2.676415745668012E-055
   294.555293498961       9.089194916615107E-056  1.521754563518252E-055
   295.348174504342      -1.782022930824180E-056 -7.825326548529933E-056
   296.141055509722      -4.660254986091812E-057  3.625870480706475E-056
   296.933936515103       8.290216791345055E-057 -1.473016016207906E-056
   297.726817520484      -6.378047396967051E-057  4.813664627276496E-057
   298.519698525865       3.792155616715206E-057 -8.302275184785240E-058
   299.312579531245      -1.893910965818886E-057 -4.366981140700326E-058
   300.105460536626       7.855739367086487E-058  6.246295166663694E-058
   300.898341542007      -2.363846140314196E-058 -4.787543345249896E-058
   301.691222547388       8.748216947480394E-060  2.917443462594807E-058
   302.484103552769       6.070202186944162E-059 -1.516161504277267E-058
   303.276984558149      -6.470164293958215E-059  6.691016976103127E-059
   304.069865563530       4.856453728169479E-059 -2.295015622758504E-059
   304.862746568911      -3.098885067684051E-059  3.444679954095214E-060
   305.655627574292       1.775033221358077E-059  3.389258437715075E-060
   306.448508579672      -9.311240281710955E-060 -4.577757693452036E-060
   307.241389585053       4.492143142541573E-060  3.755639948013711E-060
   308.034270590434      -1.975395636635581E-060 -2.547551808031708E-060
   308.827151595815       7.681834967446372E-061  1.539770342682770E-060
   309.620032601196      -2.414930450339838E-061 -8.530511457253511E-061
   310.412913606576       3.934369366770038E-062  4.382444370564160E-061
   311.205794611957       2.227653651950056E-062 -2.093266183434020E-061
   311.998675617338      -3.065349546089360E-062  9.248279844479268E-062
   312.791556622719       2.333113167427599E-062 -3.717865610313781E-062
   313.584437628099      -1.435580286451230E-062  1.305459395309678E-062
   314.377318633480       7.720786307075531E-063 -3.545079861211152E-063
   315.170199638861      -3.705157495732262E-063  3.252243651308067E-064
   315.963080644242       1.574914824059875E-063  4.671708368738317E-064
   316.755961649623      -5.675192762554168E-064 -4.710455379672293E-064
   317.548842655003       1.476277748419444E-064  3.046739515166273E-064
   318.341723660384      -1.425519635786946E-066 -1.594931236285099E-064
   319.134604665765      -3.301918503799063E-065  6.985387262758315E-065
   319.927485671146       2.998969790583622E-065 -2.412851313368051E-065
   320.720366676527      -1.917103114770704E-065  4.510517272809527E-066
   321.513247681907       1.011017249716890E-065  2.094103981959593E-066
   322.306128687288      -4.487797394305042E-066 -3.226239640388401E-066
   323.099009692669       1.570244395645198E-066  2.566253461793861E-066
   323.891890698050      -2.883524799663867E-067 -1.631446143146730E-066
   324.684771703430      -1.574630008074004E-067  9.039583362316325E-067
   325.477652708811       2.397946336575302E-067 -4.475839513574282E-067
   326.270533714192      -1.967786892945962E-067  1.975134407496386E-067
   327.063414719573       1.308182156384926E-067 -7.508355949816726E-068
   327.856295724954      -7.685734089443632E-068  2.177990267426472E-068
   328.649176730334       4.115713687971375E-068 -1.915727052018013E-069
   329.442057735715      -2.030972706766762E-068 -3.598038421931745E-069
   330.234938741096       9.230465028001623E-069  3.878165547060343E-069
   331.027819746477      -3.816363323150207E-069 -2.777245819394062E-069
   331.820700751857       1.387787018539547E-069  1.667995913811565E-069
   332.613581757238      -4.026310233458989E-070 -8.921123762331703E-070
   333.406462762619       5.577069579077675E-071  4.329161822502857E-070
   334.199343768000       3.751546078331161E-071 -1.903605149935744E-070
   334.992224773381      -4.474028350132482E-071  7.418401630820302E-071
   335.785105778761       3.094472926592890E-071 -2.392593719888941E-071
   336.577986784142      -1.729223373683747E-071  4.815206309328575E-072
   337.370867789523       8.332182025055935E-072  1.052572767228461E-072
   338.163748794904      -3.466395927034553E-072 -2.018594789378159E-072
   338.956629800285       1.172704583220740E-072  1.564359768992919E-072
   339.749510805665      -2.399466737064873E-073 -9.406620073803197E-073
   340.542391811046      -6.479289126739430E-074  4.854808286051171E-073
   341.335272816427       1.200893416225015E-073 -2.195794433041857E-073
   342.128153821808      -9.701597813988583E-074  8.509008801575845E-074
   342.921034827188       6.186300586970570E-074 -2.537465219816193E-074
   343.713915832569      -3.455071989041880E-074  2.750961920822116E-075
   344.506796837950       1.749644886096338E-074  3.708209793618149E-075
   345.299677843331      -8.122090401840351E-075 -4.189558813956210E-075
   346.092558848712       3.444089294128563E-075  3.048702980571900E-075
   346.885439854092      -1.306056054165942E-075 -1.854985892996429E-075
   347.678320859473       4.164648843296041E-076  1.009425095777239E-075
   348.471201864854      -8.825412100379333E-077 -5.038109519181109E-076
   349.264082870235      -1.104371091063232E-077  2.326879830482113E-076
   350.056963875615       2.841470497373153E-077 -9.931805850992087E-077
   350.849844880996      -2.252187499900402E-077  3.869341207384048E-077
   351.642725886377       1.365932687937687E-077 -1.331128645534931E-077
   352.435606891758      -7.153537253315392E-078  3.680499578041995E-078
   353.228487897139       3.348179659131584E-078 -5.086000668930413E-079
   354.021368902519      -1.405562765706197E-078 -2.838248865254955E-079
   354.814249907900       5.172940149402982E-079  3.323053856148395E-079
   355.607130913281      -1.541189346163949E-079 -2.196541252973577E-079
   356.400011918662       2.542072091582640E-080  1.168272833098824E-079
   357.192892924042       1.007140495767049E-080 -5.350051777439797E-080
   357.985773929423      -1.392412639167059E-080  2.112958174108613E-080
   358.778654934804       9.878299385180500E-081 -6.770356052590248E-081
   359.571535940185      -5.600999788774865E-081  1.295353152202681E-081
   360.364416945566       2.763543022429023E-081  3.596927897309806E-082
   361.157297950946      -1.212236489767119E-081 -6.116874630241236E-082
   361.950178956327       4.678512036943330E-082  4.679402950445724E-082
   362.743059961708      -1.501517950485968E-082 -2.836998210853139E-082
   363.535940967089       3.169731810521736E-083  1.509621246502204E-082
   364.328821972470       4.096588034811511E-084 -7.298297556760969E-083
   365.121702977850      -1.022208552705113E-083  3.243557765246329E-083
   365.914583983231       8.019983063280934E-084 -1.323291800254890E-083
   366.707464988612      -4.828411162237166E-084  4.879677502846071E-084
   367.500345993993       2.522228656400665E-084 -1.558067711887658E-084
   368.293226999373      -1.188278575556807E-084  3.765688122405494E-085
   369.086108004754       5.109121645346346E-085 -2.253180338964372E-086
   369.878989010135      -1.996633581933921E-085 -4.922635409215190E-086
   370.671870015516       6.929398351826312E-086  4.303940363038379E-086
   371.464751020897      -1.996587160489474E-086 -2.523411315716673E-086
   372.257632026277       3.658762608286693E-087  1.219840014331923E-086
   373.050513031658       5.955808797540514E-088 -5.067514592218373E-087
   373.843394037039      -1.092724957970408E-087  1.776990434221973E-087
   374.636275042420       7.393779507598722E-088 -4.695692627390239E-088
   375.429156047801      -3.773229321283809E-088  3.821979754561818E-089
   376.222037053181       1.583773560057725E-088  6.076596875030544E-089
   377.014918058562      -5.300631883365656E-089 -5.765678878926335E-089
   377.807799063943       1.087549056270170E-089  3.559064966244341E-089
   378.600680069324       2.337342146175288E-090 -1.796281683737744E-089
   379.393561074704      -4.533433287654058E-090  7.749416809806846E-090
   380.186442080085       3.524686476019901E-090 -2.798676687250639E-090
   380.979323085466      -2.141909619940528E-090  7.387131869130996E-091
   381.772204090847       1.136828741288110E-090 -2.831209039004908E-092
   382.565085096228      -5.472212636255279E-091 -1.407059004325603E-091
   383.357966101608       2.422210334632276E-091  1.323813558341469E-091
   384.150847106989      -9.866555008784571E-092 -8.734235765893804E-092
   384.943728112370       3.652907484426189E-092  4.901883096054643E-092
   385.736609117751      -1.185240288292947E-092 -2.475621995406451E-092
   386.529490123131       3.018059517125978E-093  1.150580270683161E-092
   387.322371128512      -3.069001492943975E-094 -4.963733129697417E-093
   388.115252133893      -2.938261622586817E-094  1.987912291212982E-093
   388.908133139274       2.904027169408636E-094 -7.326413047675800E-094
   389.701014144655      -1.796903349249106E-094  2.426999095014881E-094
   390.493895150035       9.152126420954748E-095 -6.801066502592483E-095
   391.286776155416      -4.083457915087027E-095  1.297297231697767E-095
   392.079657160797       1.615723764229877E-095  9.810957746808320E-097
   392.872538166178      -5.556711941038450E-096 -2.770618727773133E-096
   393.665419171558       1.530724631896504E-096  1.898706227512148E-096
   394.458300176939      -2.238211919757908E-097 -9.616632685506115E-097
   395.251181182320      -9.516268805110199E-098  4.025826209701898E-097
   396.044062187701       1.149265485976919E-097 -1.380605605172531E-097
   396.836943193082      -7.365808473719103E-098  3.313134508077097E-098
   397.629824198462       3.747370496472679E-098  5.368262337303233E-100
   398.422705203843      -1.625392137258075E-098 -7.394682884840034E-099
   399.215586209224       5.989622221138802E-099  6.282123706170350E-099
   400.008467214605      -1.718529426183889E-099 -3.910947418770384E-099
   400.801348219986       2.187743508024909E-100  2.099888675124096E-099
   401.594229225366       1.739189596107588E-100 -1.024140343942899E-099
   402.387110230747      -1.978578912249406E-100  4.640032486003172E-100
   403.179991236128       1.360643058149710E-100 -1.973172197617453E-100
   403.972872241509      -7.736370145663049E-101  7.899007412855800E-101
   404.765753246890       3.924177603333741E-101 -2.964541330829253E-101
   405.558634252270      -1.829478499430385E-101  1.028380056016159E-101
   406.351515257651       7.951405787628252E-102 -3.187455151355952E-102
   407.144396263032      -3.244686182234277E-102  8.071870777244603E-103
   407.937277268413       1.246085261395247E-102 -1.114549727245144E-103
   408.730158273793      -4.492386995049147E-103 -4.158678113329847E-104
   409.523039279174       1.505754530081593E-103  4.802026731554287E-104
   410.315920284555      -4.585446265622752E-104 -2.910614159555740E-104
   411.108801289936       1.199753929416446E-104  1.409406245560276E-104
   411.901682295317      -2.242677401139571E-105 -5.913902947444822E-105
   412.694563300697      -4.325684810124922E-107  2.189298549793026E-105
   413.487444306078       3.270344481851484E-106 -7.025073554817375E-106
   414.280325311459      -2.171022837480558E-106  1.803084671927624E-106
   415.073206316840       1.033639511353996E-106 -2.460707271491479E-107
   415.866087322220      -4.031552762281627E-107 -9.600119933117463E-108
   416.658968327601       1.280332211628834E-107  1.079041294656046E-107
   417.451849332982      -2.809565402198711E-108 -6.403655157786325E-108
   418.244730338363      -7.977202372796715E-110  3.006498575408200E-108
   419.037611343744       5.679585849808673E-109 -1.197325014918731E-108
   419.830492349124      -4.388391056323572E-109  4.009611275682071E-109
   420.623373354505       2.496790652220532E-109 -1.013136750369479E-109
   421.416254359886      -1.221645456131475E-109  8.020973610339506E-111
   422.209135365267       5.395472559782320E-110  1.200980618564213E-110
   423.002016370648      -2.191623162226626E-110 -1.113148323540552E-110
   423.794897376028       8.226202907742062E-111  6.805373353887977E-111
   424.587778381409      -2.833707470403740E-111 -3.489569141683556E-111
   425.380659386790       8.744652805608324E-112  1.600983296284247E-111
   426.173540392171      -2.261225246500467E-112 -6.741400571909895E-112
   426.966421397551       3.783428316456444E-113  2.633105318471579E-112
   427.759302402932       5.092460499018040E-114 -9.560074133445754E-113
   428.552183408313      -8.999593292005092E-114  3.207648521898356E-113
   429.345064413694       5.668625482599755E-114 -9.769265287839657E-114
   430.137945419075      -2.740096430245124E-114  2.582652571501874E-114
   430.930826424455       1.134689068602939E-114 -5.169284060322332E-115
   431.723707429836      -4.135056132280470E-115  2.510342394432175E-116
   432.516588435217       1.313102783642148E-115  4.666462001032446E-116
   433.309469440598      -3.421647937121283E-116 -3.341287887261977E-116
   434.102350445978       5.646301358830937E-117  1.586446550531330E-116
   434.895231451359       7.872509965626954E-118 -6.054716004455235E-117
   435.688112456740      -1.306034453655155E-117  1.873411791341942E-117
   436.480993462121       7.810058899158215E-118 -4.081540323878894E-118
   437.273874467502      -3.503301406078176E-118  2.489037305914547E-120
   438.066755472882       1.285689698086748E-118  6.291619748471292E-119
   438.859636478263      -3.725424646539837E-119 -4.688964016983538E-119
   439.652517483644       6.315326961851888E-120  2.474886159465718E-119
   440.445398489025       1.594908626725387E-120 -1.092752722730606E-119
   441.238279494405      -2.348153796595498E-120  4.196887937296870E-120
   442.031160499786       1.565483722916350E-120 -1.391036065570590E-120
   442.824041505167      -8.253326279937742E-121  3.712711638589351E-121
   443.616922510548       3.810322882853526E-121 -5.640705409322403E-122
   444.409803515929      -1.594855409930035E-121 -1.687296206308927E-122
   445.202684521309       6.123361169254408E-122  2.172201252925815E-122
   445.995565526690      -2.152759638975277E-122 -1.371945553053373E-122
   446.788446532071       6.816803744519129E-123  6.928128557308238E-123
   447.581327537452      -1.856933954895091E-123 -3.075622051678396E-123
   448.374208542832       3.748364489211983E-124  1.239414662448386E-123
   449.167089548213      -1.065088832206460E-125 -4.577452416485521E-124
   449.959970553594      -4.289072878284441E-125  1.541771609615595E-124
   450.752851558975       3.103806243537880E-125 -4.627019477790156E-125
   451.545732564356      -1.564539168381416E-125  1.157706180691415E-125
   452.338613569736       6.606538578495084E-126 -1.858829150283766E-126
   453.131494575117      -2.440625954276941E-126 -2.538445048054712E-127
   453.924375580498       7.864468108585877E-127  4.207834360431110E-127
   454.717256585879      -2.094040941987339E-127 -2.550017144170110E-127
   455.510137591260       3.625493679311049E-128  1.187821177750591E-127
   456.303018596640       4.266261178458239E-129 -4.730292643638543E-128
   457.095899602021      -8.297277153944961E-129  1.644421192377774E-128
   457.888780607402       5.345033331537784E-129 -4.862206755241228E-129
   458.681661612783      -2.647377626448154E-129  1.080197298836908E-129
   459.474542618163       1.135931504401544E-129 -6.087023603138932E-131
   460.267423623544      -4.378653064492022E-130 -1.173197377256936E-130
   461.060304628925       1.528640939532038E-130  9.532483608361379E-131
   461.853185634306      -4.775030648964472E-131 -5.262247328311385E-131
   462.646066639687       1.275013560618064E-131  2.456738248430369E-131
   463.438947645067      -2.475971716787911E-132 -1.030340388968818E-131
   464.231828650448       1.535637806231565E-134  3.971402103682879E-132
   465.024709655829       3.211498892169178E-133 -1.417315016819567E-132
   465.817590661210      -2.259836940966189E-133  4.670162790857732E-133
   466.610471666591       1.146521888888395E-133 -1.399985611762225E-133
   467.403352671971      -4.979091414372055E-134  3.673235341295732E-134
   468.196233677352       1.944822326956617E-134 -7.514890691934985E-135
   468.989114682733      -6.944736262425701E-135  5.679584310540098E-136
   469.781995688114       2.266003470616600E-135  5.208097585035570E-136
   470.574876693494      -6.638290139580188E-136 -4.085736370002596E-136
   471.367757698875       1.656929034949716E-136  2.053654191355938E-136
   472.160638704256      -2.928022339225517E-137 -8.562882524496094E-137
   472.953519709637      -7.390443031741280E-139  3.147733360309082E-137
   473.746400715018       4.063302889437300E-138 -1.033846863156292E-137
   474.539281720398      -2.611472158356841E-138  2.984870180438110E-138
   475.332162725779       1.241060810052727E-138 -7.075216465680043E-139
   476.125043731160      -5.072271027886542E-139  1.013402685227504E-139
   476.917924736541       1.864123272101966E-139  2.047021338553449E-140
   477.710805741921      -6.244223500208754E-140 -2.647599721257408E-140
   478.503686747302       1.898851982171685E-140  1.529033037106870E-140
   479.296567752683      -5.113405511358900E-141 -7.013021456771418E-141
   480.089448758064       1.130945121178475E-141  2.832188229254142E-141
   480.882329763445      -1.477550521898000E-142 -1.043578110656598E-141
   481.675210768825      -3.230727138172638E-143  3.556504081955569E-142
   482.468091774206       3.693886910600787E-143 -1.123624736504881E-142
   483.260972779587      -1.982016500611924E-143  3.267080232468672E-143
   484.053853784968       8.457230534600414E-144 -8.558532818711026E-144
   484.846734790349      -3.161213578549932E-144  1.913990995937171E-144
   485.639615795729       1.067469972048303E-144 -3.051415306085774E-145
   486.432496801110      -3.278122718871155E-145 -3.982787405382042E-147
   487.225377806491       9.056790897016573E-146  3.115581512056174E-146
   488.018258811872      -2.167619570268271E-146 -1.756460917729596E-146
   488.811139817252       3.989575441482525E-147  7.129342393519129E-147
   489.604020822633      -2.509035753692427E-148 -2.410533547307499E-147
   490.396901828014      -2.335946337866277E-148  6.948228252904654E-148
   491.189782833395       1.575884999962019E-148 -1.634986135463140E-148
   491.982663838776      -6.772082091670240E-149  2.505014252010213E-149
   492.775544844156       2.345793957539219E-149  2.215958879637026E-150
   493.568425849537      -6.775113982466080E-150 -4.010086224883886E-150
   494.361306854918       1.537768008816459E-150  2.198442130310471E-150
   495.154187860299      -1.872139549794821E-151 -9.086215072871465E-151
   495.947068865680      -5.862832587760464E-152  3.183141481853730E-151
   496.739949871060       5.862740699346330E-152 -9.692175959258427E-152
   497.532830876441      -3.052171760600408E-152  2.513112250189968E-152
   498.325711881822       1.273906613447551E-152 -5.003684476728433E-153
   499.118592887203      -4.658341747950907E-153  3.812494874378262E-154
   499.911473892583       1.537910866201629E-153  2.978173844482059E-154
   500.704354897964      -4.621857520809625E-154 -2.220223792633503E-154
   501.497235903345       1.256183169110632E-154  1.041668569291719E-154
   502.290116908726      -3.007119045259018E-155 -4.034148799511075E-155
   503.082997914107       5.875706365025567E-156  1.379384785296180E-155
   503.875878919487      -6.772380797643853E-157 -4.260687714867254E-156
   504.668759924868      -1.222241605436828E-157  1.193868458323368E-156
   505.461640930249       1.210437963159434E-157 -3.003010056157744E-157
   506.254521935630      -5.428746153701305E-158  6.559567657071218E-158
   507.047402941010       1.883270642720897E-158 -1.130479308917586E-158
   507.840283946391      -5.515700958626386E-159  9.475079958043802E-160
   508.633164951772       1.379743746213362E-159  3.235653130603193E-160
   509.426045957153      -2.838022751035663E-160 -2.186687240594848E-160
   510.218926962534       4.093053745922805E-161  8.078949250726391E-161
   511.011807967914      -2.789564837475394E-163 -2.283057937701398E-161
   511.804688973295      -2.463281681854017E-162  5.133400415128056E-162
   512.597569978676       1.084220661854581E-162 -8.573862404402202E-163
   513.390450984057      -3.093950366029752E-163  7.160176780992779E-164
   514.183331989437       6.430462761205672E-164  1.274772178518572E-164
   514.976212994818      -8.997496301863383E-165 -6.101720651583171E-165
   515.769094000199       5.790697448507827E-166  8.457256596670988E-166
   516.561975005580      -4.325015279270187E-193 -1.672674651156561E-192
