  -171.924243689677      -2.128226807076695E-192  2.337269391131659E-193
  -171.133787396851       3.467829814324378E-164  4.328045149400280E-165
  -170.343331104025      -3.147013737237981E-162 -1.273874297458719E-162
  -169.552874811199       1.412315746826791E-160  1.130358108202382E-160
  -168.762418518373      -4.071671478701540E-159 -6.283063885693331E-159
  -167.971962225547       6.021214998929652E-158  2.630219490165864E-157
  -167.181505932720       1.344205134378737E-156 -8.837651590673306E-156
  -166.391049639894      -1.464482301078171E-154  2.395933564686689E-154
  -165.600593347068       7.000051886299890E-153 -4.871707088162400E-153
  -164.810137054242      -2.494359195073780E-151  4.624755630027332E-152
  -164.019680761416       7.230867613248649E-150  1.811369257503859E-150
  -163.229224468590      -1.702857738578399E-148 -1.353413105207674E-148
  -162.438768175764       2.933873763821150E-147  5.597345627414016E-147
  -161.648311882938      -1.512997242223751E-146 -1.821979847906367E-145
  -160.857855590112      -1.523533705216006E-144  5.028950912214548E-144
  -160.067399297286       8.955059923389333E-143 -1.195576393330420E-142
  -159.276943004459      -3.417513621715645E-141  2.395308837915092E-141
  -158.486486711633       1.076274169013465E-139 -3.668322019086132E-140
  -157.696030418807      -2.986674055890045E-138  2.349616437741353E-139
  -156.905574125981       7.494021125371475E-137  1.073291372875807E-137
  -156.115117833155      -1.717384271337885E-135 -6.075793636332045E-136
  -155.324661540329       3.596999709955709E-134  2.075056247001766E-134
  -154.534205247503      -6.830915007239452E-133 -5.773438734285137E-133
  -153.743748954677       1.152006455498281E-131  1.409828952666379E-131
  -152.953292661851      -1.640356436121420E-130 -3.107680234603290E-130
  -152.162836369024       1.677184324406813E-129  6.247072156391871E-129
  -151.372380076198      -9.647426044260191E-130 -1.144293116288159E-127
  -150.581923783372      -5.426356050518583E-127  1.886913701902942E-126
  -149.791467490546       1.874885380091591E-125 -2.713300987927501E-125
  -149.001011197720      -4.498940102325282E-124  3.118436528493668E-124
  -148.210554904894       8.847615219136852E-123 -1.918833659362481E-123
  -147.420098612068      -1.470735077388288E-121 -3.087976483427044E-122
  -146.629642319242       2.005516070130727E-120  1.523451735574400E-120
  -145.839186026416      -1.912006163813061E-119 -3.829390768928231E-119
  -145.048729733590      -2.172959123778892E-120  7.397961741550898E-118
  -144.258273440763       5.885923798527763E-117 -1.161610404444867E-116
  -143.467817147937      -1.866382952585667E-115  1.400865368470873E-115
  -142.677360855111       4.161807187100707E-114 -8.532387515800104E-115
  -141.886904562285      -7.644179896295916E-113 -1.672738290418095E-113
  -141.096448269459       1.194457305536522E-111  8.210740655343713E-112
  -140.305991976633      -1.552099632530027E-110 -2.183352156894617E-110
  -139.515535683807       1.478417409480894E-109  4.665082560765185E-109
  -138.725079390981      -3.149241071482457E-109 -8.740862438564887E-108
  -137.934623098155      -2.959976961272368E-107  1.484373952592745E-106
  -137.144166805329       9.704610924913095E-106 -2.316736661072195E-105
  -136.353710512502      -2.143960554319458E-104  3.335853078138009E-104
  -135.563254219676       3.950184506010536E-103 -4.412866521861197E-103
  -134.772797926850      -6.455606740644345E-102  5.290774104028067E-102
  -133.982341634024       9.602509989767794E-101 -5.576964647820746E-101
  -133.191885341198      -1.315061952828344E-099  4.787826583374660E-100
  -132.401429048372       1.662841687389964E-098 -2.457291632317309E-099
  -131.610972755546      -1.931720635911110E-097 -1.701728230027853E-098
  -130.820516462720       2.030236249482588E-096  7.615725674100508E-097
  -130.030060169894      -1.862210596607020E-095 -1.469672706500839E-095
  -129.239603877068       1.351832274240774E-094  2.177294851471910E-094
  -128.449147584241      -4.753326984331755E-094 -2.715994562523578E-093
  -127.658691291415      -7.084857419344540E-093  2.890975553120400E-092
  -126.868234998589       2.039306337395512E-091 -2.523455973525517E-091
  -126.077778705763      -3.258299237024839E-090  1.504322175295403E-090
  -125.287322412937       4.039751553101853E-089  1.530090401059788E-090
  -124.496866120111      -4.050896155720559E-088 -2.276365869323878E-088
  -123.706409827285       3.030435761126415E-087  4.530634110608788E-087
  -122.915953534459      -8.678955713890590E-087 -6.455340292143157E-086
  -122.125497241633      -2.338560184499932E-085  7.543566479608373E-085
  -121.335040948807       6.266293114510529E-084 -7.349601347310543E-084
  -120.544584655980      -1.040561917626541E-082  5.602237392540657E-083
  -119.754128363154       1.414705572877228E-081 -2.295230902160567E-082
  -118.963672070328      -1.689902186061619E-080 -2.271974410502025E-081
  -118.173215777502       1.820584710782398E-079  7.521639987871489E-080
  -117.382759484676      -1.783615908682438E-078 -1.269696804659893E-078
  -116.592303191850       1.582372061490518E-077  1.701677048726231E-077
  -115.801846899024      -1.245882401532305E-076 -1.984687099440488E-076
  -115.011390606198       8.237130881363378E-076  2.083593959334909E-075
  -114.220934313372      -3.772666946801346E-075 -1.997261373683694E-074
  -113.430478020546      -3.159962709941901E-075  1.755309064386722E-073
  -112.640021727719       3.525052036944793E-073 -1.408321479238046E-072
  -111.849565434893      -5.557425541641076E-072  1.015429777721390E-071
  -111.059109142067       6.359468041305710E-071 -6.326121171438272E-071
  -110.268652849241      -6.095456923271569E-070  3.037729935526683E-070
  -109.478196556415       5.075549970937574E-069 -5.564214079618005E-070
  -108.687740263589      -3.664739605441365E-068 -1.032381806141277E-068
  -107.897283970763       2.199648186675667E-067  1.799300107929108E-067
  -107.106827677937      -9.312848446870312E-067 -1.920967241299680E-066
  -106.316371385111       6.063262920981795E-069  1.621208250993163E-065
  -105.525915092285       5.561851666321782E-065 -1.117991898925677E-064
  -104.735458799458      -7.820543325610341E-064  5.861686608543505E-064
  -103.945002506632       7.649163390944141E-063 -1.398002556021971E-063
  -103.154546213806      -6.050920554938518E-062 -1.677792880812080E-062
  -102.364089920980       3.911754435694745E-061  3.316847781376216E-061
  -101.573633628154      -1.868850509411557E-060 -3.776790952623228E-060
  -100.783177335328       2.799060266117485E-060  3.446645425268312E-059
  -99.9927210425018       7.367912329134604E-059 -2.712204907414540E-058
  -99.2022647496757      -1.227386031120078E-057  1.876451909419491E-057
  -98.4118084568496       1.323175492198349E-056 -1.131186917605070E-056
  -97.6213521640235      -1.176549126604427E-055  5.653814603039393E-056
  -96.8308958711974       9.200616400617183E-055 -1.927670531114379E-055
  -96.0404395783713      -6.477951600991387E-054 -1.625934911093723E-055
  -95.2499832855452       4.134005715856323E-053  1.079531207823555E-053
  -94.4595269927191      -2.378516645411269E-052 -1.276516889369610E-052
  -93.6690706998930       1.207640195976372E-051  1.110303112016546E-051
  -92.8786144070669      -5.100745123730379E-051 -8.181629851540745E-051
  -92.0881581142408       1.445101388359314E-050  5.321818421788369E-050
  -91.2977018214147       1.579683622118165E-050 -3.085720345778707E-049
  -90.5072455285886      -6.508412855926513E-049  1.577657135027211E-048
  -89.7167892357625       6.396070492417553E-048 -6.815543747015091E-048
  -88.9263329429364      -4.625791251055035E-047  2.150165486194704E-047
  -88.1358766501103       2.784070096246668E-046 -1.028512745703777E-047
  -87.3454203572842      -1.422585453569857E-045 -5.571161802206140E-046
  -86.5549640644581       5.931560903520302E-045  5.995065569205186E-045
  -85.7645077716320      -1.655984151387558E-044 -4.391530281350547E-044
  -84.9740514788059      -1.453946875744309E-044  2.630333908830417E-043
  -84.1835951859798       6.634380184247559E-043 -1.334088772675754E-042
  -83.3931388931537      -6.377195119472159E-042  5.575225880332034E-042
  -82.6026826003276       4.532010082408924E-041 -1.644456618857980E-041
  -81.8122263075015      -2.731807934815322E-040  6.818689971335081E-043
  -81.0217700146754       1.454960588954407E-039  4.754133788015304E-040
  -80.2313137218493      -6.917040492223817E-039 -4.797111795528287E-039
  -79.4408574290232       2.904923136610381E-038  3.449592049798279E-038
  -78.6504011361971      -1.032564196873963E-037 -2.097752592944683E-037
  -77.8599448433710       2.673548963948427E-037  1.135914691397807E-036
  -77.0694885505449      -7.856252849174670E-038 -5.588499467615560E-036
  -76.2790322577188      -5.136717637722970E-036  2.514552837161731E-035
  -75.4885759648927       4.643728611255070E-035 -1.031884908603490E-034
  -74.6981196720666      -2.933429186954841E-034  3.807943287805523E-034
  -73.9076633792405       1.557180606671422E-033 -1.218284315059632E-033
  -73.1172070864144      -7.315466178809337E-033  3.036072239622701E-033
  -72.3267507935883       3.093169925473517E-032 -3.157060655020404E-033
  -71.5362945007622      -1.176407807382623E-031 -2.515072506238945E-032
  -70.7458382079361       3.950750527108496E-031  2.377613815439462E-031
  -69.9553819151100      -1.108291736233117E-030 -1.364986113722795E-030
  -69.1649256222839       2.120946511612107E-030  6.346712411657743E-030
  -68.3744693294578       1.156540855450740E-030 -2.545176993300279E-029
  -67.5840130366317      -3.941080387841841E-029  8.883466720306163E-029
  -66.7935567438056       2.638398228245893E-028 -2.616893918018936E-028
  -66.0031004509795      -1.303556638493983E-027  5.730098754317832E-028
  -65.2126441581534       5.451729252202577E-027 -3.076354328762127E-028
  -64.4221878653272      -2.004347315772759E-026 -5.929534386426011E-027
  -63.6317315725012       6.503908446104923E-026  4.584165092162636E-026
  -62.8412752796751      -1.816695132519684E-025 -2.384232432394006E-025
  -62.0508189868490       3.991311393188353E-025  1.036571914822522E-024
  -61.2603626940229      -4.253043498440038E-025 -4.000218268050934E-024
  -60.4699064011968      -1.918174309051599E-024  1.401674666922650E-023
  -59.6794501083707       1.703313747935338E-023 -4.491895055136965E-023
  -58.8889938155445      -8.586180256211887E-023  1.312462600513738E-022
  -58.0985375227184       3.501757871808078E-022 -3.443857332200665E-022
  -57.3080812298923      -1.251843498452324E-021  7.806319154335149E-022
  -56.5176249370662       4.036189289643213E-021 -1.363736590505564E-021
  -55.7271686442401      -1.184520039581308E-020  8.985474911206422E-022
  -54.9367123514140       3.154625577041991E-020  6.303635736906856E-021
  -54.1462560585879      -7.494028194122958E-020 -4.049484763794737E-020
  -53.3557997657618       1.516157979936625E-019  1.622362368506998E-019
  -52.5653434729357      -2.252764128194103E-019 -5.274528912243799E-019
  -51.7748871801096       5.112507999102280E-020  1.474975974641079E-018
  -50.9844308872835       1.307603751031548E-018 -3.567434916080545E-018
  -50.1939745944574      -6.687166116863292E-018  7.184633666101647E-018
  -49.4035183016313       2.331325860882356E-017 -1.029393821050505E-017
  -48.6130620088052      -6.654392246657492E-017  5.455477448776059E-019
  -47.8226057159791       1.611124361218965E-016  6.747533264568547E-017
  -47.0321494231530      -3.226495424968145E-016 -3.281589992605944E-016
  -46.2416931303269       4.635529959420820E-016  1.122147922791760E-015
  -45.4512368375008      -7.243076154870922E-017 -3.195400117849959E-015
  -44.6607805446747      -2.684289348100155E-015  7.914881451092334E-015
  -43.8703242518486       1.314759145646821E-014 -1.711976052694542E-014
  -43.0798679590225      -4.483183783814221E-014  3.136099679147879E-014
  -42.2894116661964       1.280315373841530E-013 -4.332042101877209E-014
  -41.4989553733703      -3.227000446339024E-013  1.946376287398585E-014
  -40.7084990805442       7.305429556986133E-013  1.427656710471759E-013
  -39.9180427877181      -1.486168755084486E-012 -7.007405939233794E-013
  -39.1275864948920       2.674579954145131E-012  2.211885275553848E-012
  -38.3371302020659      -4.066593846306244E-012 -5.723729088268520E-012
  -37.5466739092398       4.494945315107769E-012  1.289111896619710E-011
  -36.7562176164137      -6.678555076397583E-013 -2.566112243108348E-011
  -35.9657613235876      -1.461045011150074E-011  4.472128048023406E-011
  -35.1753050307615       5.414614933992551E-011 -6.529190358436783E-011
  -34.3848487379354      -1.355729596665421E-010  6.840856856346331E-011
  -33.5943924451093       2.722627226445924E-010 -6.652547814279017E-012
  -32.8039361522832      -4.449611355188495E-010 -2.123280386805666E-010
  -32.0134798594571       5.380569751363652E-010  7.291793853882097E-010
  -31.2230235666310      -2.255133378350045E-010 -1.682825360720722E-009
  -30.4325672738049      -1.186752534472304E-009  3.024756085340191E-009
  -29.6421109809788       4.886437395837912E-009 -4.059562273200191E-009
  -28.8516546881527      -1.241751948041423E-008  2.527113090319025E-009
  -28.0611983953266       2.476285803340098E-008  6.937059926150191E-009
  -27.2707421025005      -3.968649046184670E-008 -3.493048546173632E-008
  -26.4802858096744       4.581815076216155E-008  9.945023287963895E-008
  -25.6898295168483      -1.148297064659061E-008 -2.265778833766284E-007
  -24.8993732240222      -1.336636752041841E-007  4.467845838888959E-007
  -24.1089169311961       5.246651860761393E-007 -7.825699154342634E-007
  -23.3184606383700      -1.391141369310451E-006  1.222580336133600E-006
  -22.5280043455439       3.078543058461119E-006 -1.678406436463130E-006
  -21.7375480527178      -6.035404460868155E-006  1.922780300384528E-006
  -20.9470917598917       1.072968007616701E-005 -1.511225037278256E-006
  -20.1566354670656      -1.746015282695093E-005 -3.031992494187989E-007
  -19.3661791742395       2.605797959416005E-005  4.628614179745470E-006
  -18.5757228814134      -3.552212889823386E-005 -1.288474495954170E-005
  -17.7852665885873       4.367860471738134E-005  2.651469440449648E-005
  -16.9948102957612      -4.699263596179299E-005 -4.633697281302330E-005
  -16.2043540029351       4.071759912638146E-005  7.152297259037359E-005
  -15.4138977101090      -1.962948298565457E-005 -9.836899284535605E-005
  -14.6234414172829      -2.039915727129573E-005  1.192454485677221E-004
  -13.8329851244568       7.987695987948488E-005 -1.223071881473303E-004
  -13.0425288316307      -1.524486880961121E-004  9.268099776878449E-005
  -12.2520725388046       2.216351930465438E-004 -1.581119989648405E-005
  -11.4616162459785      -2.587780578402151E-004 -1.166693754212346E-004
  -10.6711599531524       2.237603601851592E-004  2.988224202956968E-004
  -9.88070366032627      -7.003343217029637E-005 -5.012301881256162E-004
  -9.09024736750017      -2.451685831687567E-004  6.628961062735870E-004
  -8.29979107467407       7.459031847114710E-004 -6.869597342857617E-004
  -7.50933478184796      -1.420349812498894E-003  4.428429224558066E-004
  -6.71887848902186       2.206202470958389E-003  2.236212360008160E-004
  -5.92842219619576      -2.985647857819415E-003 -1.472230437404717E-003
  -5.13796590336966       3.598236317800914E-003  3.443955152020914E-003
  -4.34750961054356      -3.878481463711736E-003 -6.230006375662048E-003
  -3.55705331771746       3.716884961997652E-003  9.829832005936559E-003
  -2.76659702489135      -3.123624337065285E-003 -1.409086837905425E-002
  -1.97614073206525       2.248130390917787E-003  1.863784400960906E-002
  -1.18568443923915      -1.305783493783432E-003 -2.284277322659499E-002
 -0.395228146413051       4.273293924790706E-004  2.592298207836511E-002
  0.395228146413051       4.273293924790706E-004 -2.592298207836511E-002
   1.18568443923915      -1.305783493783432E-003  2.284277322659499E-002
   1.97614073206525       2.248130390917787E-003 -1.863784400960906E-002
   2.76659702489135      -3.123624337065285E-003  1.409086837905425E-002
   3.55705331771746       3.716884961997652E-003 -9.829832005936559E-003
   4.34750961054356      -3.878481463711736E-003  6.230006375662048E-003
   5.13796590336966       3.598236317800914E-003 -3.443955152020914E-003
   5.92842219619576      -2.985647857819415E-003  1.472230437404717E-003
   6.71887848902186       2.206202470958389E-003 -2.236212360008160E-004
   7.50933478184796      -1.420349812498894E-003 -4.428429224558066E-004
   8.29979107467407       7.459031847114710E-004  6.869597342857617E-004
   9.09024736750017      -2.451685831687567E-004 -6.628961062735870E-004
   9.88070366032627      -7.003343217029637E-005  5.012301881256162E-004
   10.6711599531524       2.237603601851592E-004 -2.988224202956968E-004
   11.4616162459785      -2.587780578402151E-004  1.166693754212346E-004
   12.2520725388046       2.216351930465438E-004  1.581119989648405E-005
   13.0425288316307      -1.524486880961121E-004 -9.268099776878449E-005
   13.8329851244568       7.987695987948488E-005  1.223071881473303E-004
   14.6234414172829      -2.039915727129573E-005 -1.192454485677221E-004
   15.4138977101090      -1.962948298565457E-005  9.836899284535605E-005
   16.2043540029351       4.071759912638146E-005 -7.152297259037359E-005
   16.9948102957612      -4.699263596179299E-005  4.633697281302330E-005
   17.7852665885873       4.367860471738134E-005 -2.651469440449648E-005
   18.5757228814134      -3.552212889823386E-005  1.288474495954170E-005
   19.3661791742395       2.605797959416005E-005 -4.628614179745470E-006
   20.1566354670656      -1.746015282695093E-005  3.031992494187989E-007
   20.9470917598917       1.072968007616701E-005  1.511225037278256E-006
   21.7375480527178      -6.035404460868155E-006 -1.922780300384528E-006
   22.5280043455439       3.078543058461119E-006  1.678406436463130E-006
   23.3184606383700      -1.391141369310451E-006 -1.222580336133600E-006
   24.1089169311961       5.246651860761393E-007  7.825699154342634E-007
   24.8993732240222      -1.336636752041841E-007 -4.467845838888959E-007
   25.6898295168483      -1.148297064659061E-008  2.265778833766284E-007
   26.4802858096744       4.581815076216155E-008 -9.945023287963895E-008
   27.2707421025005      -3.968649046184670E-008  3.493048546173632E-008
   28.0611983953266       2.476285803340098E-008 -6.937059926150191E-009
   28.8516546881527      -1.241751948041423E-008 -2.527113090319025E-009
   29.6421109809788       4.886437395837912E-009  4.059562273200191E-009
   30.4325672738049      -1.186752534472304E-009 -3.024756085340191E-009
   31.2230235666310      -2.255133378350045E-010  1.682825360720722E-009
   32.0134798594571       5.380569751363652E-010 -7.291793853882097E-010
   32.8039361522832      -4.449611355188495E-010  2.123280386805666E-010
   33.5943924451093       2.722627226445924E-010  6.652547814279017E-012
   34.3848487379354      -1.355729596665421E-010 -6.840856856346331E-011
   35.1753050307615       5.414614933992551E-011  6.529190358436783E-011
   35.9657613235876      -1.461045011150074E-011 -4.472128048023406E-011
   36.7562176164137      -6.678555076397583E-013  2.566112243108348E-011
   37.5466739092398       4.494945315107769E-012 -1.289111896619710E-011
   38.3371302020659      -4.066593846306244E-012  5.723729088268520E-012
   39.1275864948920       2.674579954145131E-012 -2.211885275553848E-012
   39.9180427877181      -1.486168755084486E-012  7.007405939233794E-013
   40.7084990805442       7.305429556986133E-013 -1.427656710471759E-013
   41.4989553733703      -3.227000446339024E-013 -1.946376287398585E-014
   42.2894116661964       1.280315373841530E-013  4.332042101877209E-014
   43.0798679590225      -4.483183783814221E-014 -3.136099679147879E-014
   43.8703242518486       1.314759145646821E-014  1.711976052694542E-014
   44.6607805446747      -2.684289348100155E-015 -7.914881451092334E-015
   45.4512368375008      -7.243076154870922E-017  3.195400117849959E-015
   46.2416931303269       4.635529959420820E-016 -1.122147922791760E-015
   47.0321494231530      -3.226495424968145E-016  3.281589992605944E-016
   47.8226057159791       1.611124361218965E-016 -6.747533264568547E-017
   48.6130620088052      -6.654392246657492E-017 -5.455477448776059E-019
   49.4035183016313       2.331325860882356E-017  1.029393821050505E-017
   50.1939745944574      -6.687166116863292E-018 -7.184633666101647E-018
   50.9844308872835       1.307603751031548E-018  3.567434916080545E-018
   51.7748871801096       5.112507999102280E-020 -1.474975974641079E-018
   52.5653434729357      -2.252764128194103E-019  5.274528912243799E-019
   53.3557997657618       1.516157979936625E-019 -1.622362368506998E-019
   54.1462560585879      -7.494028194122958E-020  4.049484763794737E-020
   54.9367123514140       3.154625577041991E-020 -6.303635736906856E-021
   55.7271686442401      -1.184520039581308E-020 -8.985474911206422E-022
   56.5176249370662       4.036189289643213E-021  1.363736590505564E-021
   57.3080812298923      -1.251843498452324E-021 -7.806319154335149E-022
   58.0985375227184       3.501757871808078E-022  3.443857332200665E-022
   58.8889938155446      -8.586180256211887E-023 -1.312462600513738E-022
   59.6794501083707       1.703313747935338E-023  4.491895055136965E-023
   60.4699064011968      -1.918174309051599E-024 -1.401674666922650E-023
   61.2603626940229      -4.253043498440038E-025  4.000218268050934E-024
   62.0508189868490       3.991311393188353E-025 -1.036571914822522E-024
   62.8412752796751      -1.816695132519684E-025  2.384232432394006E-025
   63.6317315725012       6.503908446104923E-026 -4.584165092162636E-026
   64.4221878653273      -2.004347315772759E-026  5.929534386426011E-027
   65.2126441581534       5.451729252202577E-027  3.076354328762127E-028
   66.0031004509795      -1.303556638493983E-027 -5.730098754317832E-028
   66.7935567438056       2.638398228245893E-028  2.616893918018936E-028
   67.5840130366317      -3.941080387841841E-029 -8.883466720306163E-029
   68.3744693294578       1.156540855450740E-030  2.545176993300279E-029
   69.1649256222839       2.120946511612107E-030 -6.346712411657743E-030
   69.9553819151100      -1.108291736233117E-030  1.364986113722795E-030
   70.7458382079361       3.950750527108496E-031 -2.377613815439462E-031
   71.5362945007622      -1.176407807382623E-031  2.515072506238945E-032
   72.3267507935883       3.093169925473517E-032  3.157060655020404E-033
   73.1172070864144      -7.315466178809337E-033 -3.036072239622701E-033
   73.9076633792405       1.557180606671422E-033  1.218284315059632E-033
   74.6981196720666      -2.933429186954841E-034 -3.807943287805523E-034
   75.4885759648927       4.643728611255070E-035  1.031884908603490E-034
   76.2790322577188      -5.136717637722970E-036 -2.514552837161731E-035
   77.0694885505449      -7.856252849174670E-038  5.588499467615560E-036
   77.8599448433710       2.673548963948427E-037 -1.135914691397807E-036
   78.6504011361971      -1.032564196873963E-037  2.097752592944683E-037
   79.4408574290232       2.904923136610381E-038 -3.449592049798279E-038
   80.2313137218493      -6.917040492223817E-039  4.797111795528287E-039
   81.0217700146754       1.454960588954407E-039 -4.754133788015304E-040
   81.8122263075015      -2.731807934815322E-040 -6.818689971335081E-043
   82.6026826003276       4.532010082408924E-041  1.644456618857980E-041
   83.3931388931537      -6.377195119472159E-042 -5.575225880332034E-042
   84.1835951859798       6.634380184247559E-043  1.334088772675754E-042
   84.9740514788059      -1.453946875744309E-044 -2.630333908830417E-043
   85.7645077716320      -1.655984151387558E-044  4.391530281350547E-044
   86.5549640644581       5.931560903520302E-045 -5.995065569205186E-045
   87.3454203572842      -1.422585453569857E-045  5.571161802206140E-046
   88.1358766501103       2.784070096246668E-046  1.028512745703777E-047
   88.9263329429364      -4.625791251055035E-047 -2.150165486194704E-047
   89.7167892357625       6.396070492417553E-048  6.815543747015091E-048
   90.5072455285886      -6.508412855926513E-049 -1.577657135027211E-048
   91.2977018214147       1.579683622118165E-050  3.085720345778707E-049
   92.0881581142408       1.445101388359314E-050 -5.321818421788369E-050
   92.8786144070669      -5.100745123730379E-051  8.181629851540745E-051
   93.6690706998930       1.207640195976372E-051 -1.110303112016546E-051
   94.4595269927191      -2.378516645411269E-052  1.276516889369610E-052
   95.2499832855452       4.134005715856323E-053 -1.079531207823555E-053
   96.0404395783713      -6.477951600991387E-054  1.625934911093723E-055
   96.8308958711974       9.200616400617183E-055  1.927670531114379E-055
   97.6213521640235      -1.176549126604427E-055 -5.653814603039393E-056
   98.4118084568496       1.323175492198349E-056  1.131186917605070E-056
   99.2022647496757      -1.227386031120078E-057 -1.876451909419491E-057
   99.9927210425018       7.367912329134604E-059  2.712204907414540E-058
   100.783177335328       2.799060266117485E-060 -3.446645425268312E-059
   101.573633628154      -1.868850509411557E-060  3.776790952623228E-060
   102.364089920980       3.911754435694745E-061 -3.316847781376216E-061
   103.154546213806      -6.050920554938518E-062  1.677792880812080E-062
   103.945002506632       7.649163390944141E-063  1.398002556021971E-063
   104.735458799458      -7.820543325610341E-064 -5.861686608543505E-064
   105.525915092285       5.561851666321782E-065  1.117991898925677E-064
   106.316371385111       6.063262920981795E-069 -1.621208250993163E-065
   107.106827677937      -9.312848446870312E-067  1.920967241299680E-066
   107.897283970763       2.199648186675667E-067 -1.799300107929108E-067
   108.687740263589      -3.664739605441365E-068  1.032381806141277E-068
   109.478196556415       5.075549970937574E-069  5.564214079618005E-070
   110.268652849241      -6.095456923271569E-070 -3.037729935526683E-070
   111.059109142067       6.359468041305710E-071  6.326121171438272E-071
   111.849565434893      -5.557425541641076E-072 -1.015429777721390E-071
   112.640021727719       3.525052036944793E-073  1.408321479238046E-072
   113.430478020546      -3.159962709941901E-075 -1.755309064386722E-073
   114.220934313372      -3.772666946801346E-075  1.997261373683694E-074
   115.011390606198       8.237130881363378E-076 -2.083593959334909E-075
   115.801846899024      -1.245882401532305E-076  1.984687099440488E-076
   116.592303191850       1.582372061490518E-077 -1.701677048726231E-077
   117.382759484676      -1.783615908682438E-078  1.269696804659893E-078
   118.173215777502       1.820584710782398E-079 -7.521639987871489E-080
   118.963672070328      -1.689902186061619E-080  2.271974410502025E-081
   119.754128363154       1.414705572877228E-081  2.295230902160567E-082
   120.544584655980      -1.040561917626541E-082 -5.602237392540657E-083
   121.335040948807       6.266293114510529E-084  7.349601347310543E-084
   122.125497241633      -2.338560184499932E-085 -7.543566479608373E-085
   122.915953534459      -8.678955713890590E-087  6.455340292143157E-086
   123.706409827285       3.030435761126415E-087 -4.530634110608788E-087
   124.496866120111      -4.050896155720559E-088  2.276365869323878E-088
   125.287322412937       4.039751553101853E-089 -1.530090401059788E-090
   126.077778705763      -3.258299237024839E-090 -1.504322175295403E-090
   126.868234998589       2.039306337395512E-091  2.523455973525517E-091
   127.658691291415      -7.084857419344540E-093 -2.890975553120400E-092
   128.449147584241      -4.753326984331755E-094  2.715994562523578E-093
   129.239603877068       1.351832274240774E-094 -2.177294851471910E-094
   130.030060169894      -1.862210596607020E-095  1.469672706500839E-095
   130.820516462720       2.030236249482588E-096 -7.615725674100508E-097
   131.610972755546      -1.931720635911110E-097  1.701728230027853E-098
   132.401429048372       1.662841687389964E-098  2.457291632317309E-099
   133.191885341198      -1.315061952828344E-099 -4.787826583374660E-100
   133.982341634024       9.602509989767794E-101  5.576964647820746E-101
   134.772797926850      -6.455606740644345E-102 -5.290774104028067E-102
   135.563254219676       3.950184506010536E-103  4.412866521861197E-103
   136.353710512502      -2.143960554319458E-104 -3.335853078138009E-104
   137.144166805329       9.704610924913095E-106  2.316736661072195E-105
   137.934623098155      -2.959976961272368E-107 -1.484373952592745E-106
   138.725079390981      -3.149241071482457E-109  8.740862438564887E-108
   139.515535683807       1.478417409480894E-109 -4.665082560765185E-109
   140.305991976633      -1.552099632530027E-110  2.183352156894617E-110
   141.096448269459       1.194457305536522E-111 -8.210740655343713E-112
   141.886904562285      -7.644179896295916E-113  1.672738290418095E-113
   142.677360855111       4.161807187100707E-114  8.532387515800104E-115
   143.467817147937      -1.866382952585667E-115 -1.400865368470873E-115
   144.258273440764       5.885923798527763E-117  1.161610404444867E-116
   145.048729733590      -2.172959123778892E-120 -7.397961741550898E-118
   145.839186026416      -1.912006163813061E-119  3.829390768928231E-119
   146.629642319242       2.005516070130727E-120 -1.523451735574400E-120
   147.420098612068      -1.470735077388288E-121  3.087976483427044E-122
   148.210554904894       8.847615219136852E-123  1.918833659362481E-123
   149.001011197720      -4.498940102325282E-124 -3.118436528493668E-124
   149.791467490546       1.874885380091591E-125  2.713300987927501E-125
   150.581923783372      -5.426356050518583E-127 -1.886913701902942E-126
   151.372380076198      -9.647426044260191E-130  1.144293116288159E-127
   152.162836369024       1.677184324406813E-129 -6.247072156391871E-129
   152.953292661851      -1.640356436121420E-130  3.107680234603290E-130
   153.743748954677       1.152006455498281E-131 -1.409828952666379E-131
   154.534205247503      -6.830915007239452E-133  5.773438734285137E-133
   155.324661540329       3.596999709955709E-134 -2.075056247001766E-134
   156.115117833155      -1.717384271337885E-135  6.075793636332045E-136
   156.905574125981       7.494021125371475E-137 -1.073291372875807E-137
   157.696030418807      -2.986674055890045E-138 -2.349616437741353E-139
   158.486486711633       1.076274169013465E-139  3.668322019086132E-140
   159.276943004459      -3.417513621715645E-141 -2.395308837915092E-141
   160.067399297286       8.955059923389333E-143  1.195576393330420E-142
   160.857855590112      -1.523533705216006E-144 -5.028950912214548E-144
   161.648311882938      -1.512997242223751E-146  1.821979847906367E-145
   162.438768175764       2.933873763821150E-147 -5.597345627414016E-147
   163.229224468590      -1.702857738578399E-148  1.353413105207674E-148
   164.019680761416       7.230867613248649E-150 -1.811369257503859E-150
   164.810137054242      -2.494359195073780E-151 -4.624755630027332E-152
   165.600593347068       7.000051886299890E-153  4.871707088162400E-153
   166.391049639894      -1.464482301078171E-154 -2.395933564686689E-154
   167.181505932720       1.344205134378737E-156  8.837651590673306E-156
   167.971962225547       6.021214998929652E-158 -2.630219490165864E-157
   168.762418518373      -4.071671478701540E-159  6.283063885693331E-159
   169.552874811199       1.412315746826791E-160 -1.130358108202382E-160
   170.343331104025      -3.147013737237981E-162  1.273874297458719E-162
   171.133787396851       3.467829814324378E-164 -4.328045149400280E-165
   171.924243689677      -2.128226807076695E-192 -2.337269391131659E-193
