  32262.1600     0.34281E+02 
  32294.4222     0.35084E+02 
  32326.6843     0.35908E+02 
  32358.9465     0.36755E+02 
  32391.2086     0.37625E+02 
  32423.4708     0.38518E+02 
  32455.7330     0.39435E+02 
  32487.9951     0.40378E+02 
  32520.2573     0.41347E+02 
  32552.5194     0.42342E+02 
  32584.7816     0.43365E+02 
  32617.0438     0.44417E+02 
  32649.3059     0.45498E+02 
  32681.5681     0.46609E+02 
  32713.8302     0.47752E+02 
  32746.0924     0.48928E+02 
  32778.3546     0.50137E+02 
  32810.6167     0.51380E+02 
  32842.8789     0.52660E+02 
  32875.1410     0.53976E+02 
  32907.4032     0.55331E+02 
  32939.6654     0.56726E+02 
  32971.9275     0.58161E+02 
  33004.1897     0.59639E+02 
  33036.4518     0.61161E+02 
  33068.7140     0.62728E+02 
  33100.9762     0.64343E+02 
  33133.2383     0.66006E+02 
  33165.5005     0.67719E+02 
  33197.7626     0.69485E+02 
  33230.0248     0.71305E+02 
  33262.2870     0.73181E+02 
  33294.5491     0.75115E+02 
  33326.8113     0.77110E+02 
  33359.0734     0.79167E+02 
  33391.3356     0.81289E+02 
  33423.5978     0.83478E+02 
  33455.8599     0.85737E+02 
  33488.1221     0.88069E+02 
  33520.3842     0.90475E+02 
  33552.6464     0.92960E+02 
  33584.9086     0.95527E+02 
  33617.1707     0.98177E+02 
  33649.4329     0.10092E+03 
  33681.6950     0.10374E+03 
  33713.9572     0.10667E+03 
  33746.2194     0.10969E+03 
  33778.4815     0.11282E+03 
  33810.7437     0.11605E+03 
  33843.0058     0.11939E+03 
  33875.2680     0.12285E+03 
  33907.5302     0.12643E+03 
  33939.7923     0.13013E+03 
  33972.0545     0.13397E+03 
  34004.3166     0.13794E+03 
  34036.5788     0.14205E+03 
  34068.8410     0.14631E+03 
  34101.1031     0.15073E+03 
  34133.3653     0.15531E+03 
  34165.6274     0.16006E+03 
  34197.8896     0.16498E+03 
  34230.1518     0.17009E+03 
  34262.4139     0.17539E+03 
  34294.6761     0.18089E+03 
  34326.9382     0.18660E+03 
  34359.2004     0.19254E+03 
  34391.4626     0.19870E+03 
  34423.7247     0.20510E+03 
  34455.9869     0.21176E+03 
  34488.2490     0.21869E+03 
  34520.5112     0.22589E+03 
  34552.7734     0.23338E+03 
  34585.0355     0.24118E+03 
  34617.2977     0.24931E+03 
  34649.5598     0.25777E+03 
  34681.8220     0.26659E+03 
  34714.0842     0.27578E+03 
  34746.3463     0.28536E+03 
  34778.6085     0.29536E+03 
  34810.8706     0.30579E+03 
  34843.1328     0.31668E+03 
  34875.3950     0.32806E+03 
  34907.6571     0.33995E+03 
  34939.9193     0.35238E+03 
  34972.1814     0.36537E+03 
  35004.4436     0.37897E+03 
  35036.7058     0.39320E+03 
  35068.9679     0.40811E+03 
  35101.2301     0.42373E+03 
  35133.4922     0.44011E+03 
  35165.7544     0.45728E+03 
  35198.0166     0.47531E+03 
  35230.2787     0.49423E+03 
  35262.5409     0.51412E+03 
  35294.8030     0.53502E+03 
  35327.0652     0.55700E+03 
  35359.3274     0.58014E+03 
  35391.5895     0.60451E+03 
  35423.8517     0.63019E+03 
  35456.1138     0.65727E+03 
  35488.3760     0.68585E+03 
  35520.6382     0.71602E+03 
  35552.9003     0.74791E+03 
  35585.1625     0.78164E+03 
  35617.4246     0.81733E+03 
  35649.6868     0.85514E+03 
  35681.9490     0.89522E+03 
  35714.2111     0.93775E+03 
  35746.4733     0.98291E+03 
  35778.7354     0.10309E+04 
  35810.9976     0.10820E+04 
  35843.2598     0.11364E+04 
  35875.5219     0.11944E+04 
  35907.7841     0.12562E+04 
  35940.0462     0.13224E+04 
  35972.3084     0.13931E+04 
  36004.5706     0.14688E+04 
  36036.8327     0.15500E+04 
  36069.0949     0.16371E+04 
  36101.3570     0.17308E+04 
  36133.6192     0.18316E+04 
  36165.8814     0.19402E+04 
  36198.1435     0.20575E+04 
  36230.4057     0.21843E+04 
  36262.6678     0.23216E+04 
  36294.9300     0.24705E+04 
  36327.1922     0.26323E+04 
  36359.4543     0.28084E+04 
  36391.7165     0.30003E+04 
  36423.9786     0.32100E+04 
  36456.2408     0.34395E+04 
  36488.5030     0.36912E+04 
  36520.7651     0.39679E+04 
  36553.0273     0.42726E+04 
  36585.2894     0.46089E+04 
  36617.5516     0.49809E+04 
  36649.8138     0.53933E+04 
  36682.0759     0.58515E+04 
  36714.3381     0.63617E+04 
  36746.6002     0.69309E+04 
  36778.8624     0.75672E+04 
  36811.1246     0.82796E+04 
  36843.3867     0.90782E+04 
  36875.6489     0.99741E+04 
  36907.9110     0.10979E+05 
  36940.1732     0.12106E+05 
  36972.4354     0.13366E+05 
  37004.6975     0.14769E+05 
  37036.9597     0.16324E+05 
  37069.2218     0.18029E+05 
  37101.4840     0.19877E+05 
  37133.7462     0.21845E+05 
  37166.0083     0.23897E+05 
  37198.2705     0.25976E+05 
  37230.5326     0.28006E+05 
  37262.7948     0.29899E+05 
  37295.0570     0.31559E+05 
  37327.3191     0.32895E+05 
  37359.5813     0.33825E+05 
  37391.8434     0.34291E+05 
  37424.1056     0.34257E+05 
  37456.3678     0.33716E+05 
  37488.6299     0.32684E+05 
  37520.8921     0.31199E+05 
  37553.1542     0.29313E+05 
  37585.4164     0.27091E+05 
  37617.6786     0.24602E+05 
  37649.9407     0.21926E+05 
  37682.2029     0.19143E+05 
  37714.4650     0.16342E+05 
  37746.7272     0.13614E+05 
  37778.9894     0.11049E+05 
  37811.2515     0.87317E+04 
  37843.5137     0.67314E+04 
  37875.7758     0.50980E+04 
  37908.0380     0.38556E+04 
  37940.3002     0.30014E+04 
  37972.5623     0.25073E+04 
  38004.8245     0.23236E+04 
  38037.0866     0.23863E+04 
  38069.3488     0.26238E+04 
  38101.6110     0.29648E+04 
  38133.8731     0.33462E+04 
  38166.1353     0.37180E+04 
  38198.3974     0.40485E+04 
  38230.6596     0.43255E+04 
  38262.9218     0.45566E+04 
  38295.1839     0.47674E+04 
  38327.4461     0.49979E+04 
  38359.7082     0.52982E+04 
  38391.9704     0.57238E+04 
  38424.2326     0.63296E+04 
  38456.4947     0.71645E+04 
  38488.7569     0.82663E+04 
  38521.0190     0.96579E+04 
  38553.2812     0.11344E+05 
  38585.5434     0.13311E+05 
  38617.8055     0.15525E+05 
  38650.0677     0.17933E+05 
  38682.3298     0.20470E+05 
  38714.5920     0.23061E+05 
  38746.8542     0.25629E+05 
  38779.1163     0.28101E+05 
  38811.3785     0.30414E+05 
  38843.6406     0.32516E+05 
  38875.9028     0.34373E+05 
  38908.1650     0.35959E+05 
  38940.4271     0.37259E+05 
  38972.6893     0.38260E+05 
  39004.9514     0.38954E+05 
  39037.2136     0.39332E+05 
  39069.4758     0.39390E+05 
  39101.7379     0.39129E+05 
  39134.0001     0.38563E+05 
  39166.2622     0.37716E+05 
  39198.5244     0.36624E+05 
  39230.7866     0.35336E+05 
  39263.0487     0.33902E+05 
  39295.3109     0.32369E+05 
  39327.5730     0.30777E+05 
  39359.8352     0.29152E+05 
  39392.0974     0.27507E+05 
  39424.3595     0.25844E+05 
  39456.6217     0.24160E+05 
  39488.8838     0.22455E+05 
  39521.1460     0.20733E+05 
  39553.4082     0.19007E+05 
  39585.6703     0.17299E+05 
  39617.9325     0.15640E+05 
  39650.1946     0.14061E+05 
  39682.4568     0.12595E+05 
  39714.7190     0.11270E+05 
  39746.9811     0.10108E+05 
  39779.2433     0.91224E+04 
  39811.5054     0.83166E+04 
  39843.7676     0.76876E+04 
  39876.0298     0.72255E+04 
  39908.2919     0.69161E+04 
  39940.5541     0.67425E+04 
  39972.8162     0.66876E+04 
  40005.0784     0.67351E+04 
  40037.3406     0.68712E+04 
  40069.6027     0.70847E+04 
  40101.8649     0.73677E+04 
  40134.1270     0.77157E+04 
  40166.3892     0.81269E+04 
  40198.6514     0.86021E+04 
  40230.9135     0.91434E+04 
  40263.1757     0.97534E+04 
  40295.4378     0.10434E+05 
  40327.7000     0.11185E+05 
  40359.9622     0.12002E+05 
  40392.2243     0.12878E+05 
  40424.4865     0.13800E+05 
  40456.7486     0.14750E+05 
  40489.0108     0.15707E+05 
  40521.2730     0.16649E+05 
  40553.5351     0.17554E+05 
  40585.7973     0.18404E+05 
  40618.0594     0.19182E+05 
  40650.3216     0.19878E+05 
  40682.5838     0.20482E+05 
  40714.8459     0.20988E+05 
  40747.1081     0.21387E+05 
  40779.3702     0.21674E+05 
  40811.6324     0.21841E+05 
  40843.8946     0.21880E+05 
  40876.1567     0.21788E+05 
  40908.4189     0.21564E+05 
  40940.6810     0.21216E+05 
  40972.9432     0.20757E+05 
  41005.2054     0.20205E+05 
  41037.4675     0.19582E+05 
  41069.7297     0.18912E+05 
  41101.9918     0.18215E+05 
  41134.2540     0.17507E+05 
  41166.5162     0.16800E+05 
  41198.7783     0.16101E+05 
  41231.0405     0.15412E+05 
  41263.3026     0.14734E+05 
  41295.5648     0.14067E+05 
  41327.8270     0.13412E+05 
  41360.0891     0.12771E+05 
  41392.3513     0.12149E+05 
  41424.6134     0.11551E+05 
  41456.8756     0.10982E+05 
  41489.1378     0.10449E+05 
  41521.3999     0.99575E+04 
  41553.6621     0.95120E+04 
  41585.9242     0.91157E+04 
  41618.1864     0.87705E+04 
  41650.4486     0.84769E+04 
  41682.7107     0.82343E+04 
  41714.9729     0.80408E+04 
  41747.2350     0.78942E+04 
  41779.4972     0.77913E+04 
  41811.7594     0.77290E+04 
  41844.0215     0.77036E+04 
  41876.2837     0.77113E+04 
  41908.5458     0.77486E+04 
  41940.8080     0.78120E+04 
  41973.0702     0.78981E+04 
  42005.3323     0.80041E+04 
  42037.5945     0.81272E+04 
  42069.8566     0.82649E+04 
  42102.1188     0.84146E+04 
  42134.3810     0.85733E+04 
  42166.6431     0.87376E+04 
  42198.9053     0.89033E+04 
  42231.1674     0.90659E+04 
  42263.4296     0.92205E+04 
  42295.6918     0.93624E+04 
  42327.9539     0.94878E+04 
  42360.2161     0.95936E+04 
  42392.4782     0.96783E+04 
  42424.7404     0.97410E+04 
  42457.0026     0.97820E+04 
  42489.2647     0.98014E+04 
  42521.5269     0.97996E+04 
  42553.7890     0.97762E+04 
  42586.0512     0.97303E+04 
  42618.3134     0.96610E+04 
  42650.5755     0.95671E+04 
  42682.8377     0.94485E+04 
  42715.0998     0.93059E+04 
  42747.3620     0.91412E+04 
  42779.6242     0.89574E+04 
  42811.8863     0.87584E+04 
  42844.1485     0.85484E+04 
  42876.4106     0.83316E+04 
  42908.6728     0.81115E+04 
  42940.9350     0.78909E+04 
  42973.1971     0.76720E+04 
  43005.4593     0.74562E+04 
  43037.7214     0.72444E+04 
  43069.9836     0.70373E+04 
  43102.2458     0.68356E+04 
  43134.5079     0.66398E+04 
  43166.7701     0.64507E+04 
  43199.0322     0.62690E+04 
  43231.2944     0.60956E+04 
  43263.5566     0.59313E+04 
  43295.8187     0.57767E+04 
  43328.0809     0.56324E+04 
  43360.3430     0.54987E+04 
  43392.6052     0.53760E+04 
  43424.8674     0.52640E+04 
  43457.1295     0.51627E+04 
  43489.3917     0.50716E+04 
  43521.6538     0.49902E+04 
  43553.9160     0.49179E+04 
  43586.1782     0.48540E+04 
  43618.4403     0.47977E+04 
  43650.7025     0.47481E+04 
  43682.9646     0.47043E+04 
  43715.2268     0.46655E+04 
  43747.4890     0.46310E+04 
  43779.7511     0.46000E+04 
  43812.0133     0.45718E+04 
  43844.2754     0.45460E+04 
  43876.5376     0.45220E+04 
  43908.7998     0.44991E+04 
  43941.0619     0.44767E+04 
  43973.3241     0.44540E+04 
  44005.5862     0.44303E+04 
  44037.8484     0.44046E+04 
  44070.1106     0.43764E+04 
  44102.3727     0.43450E+04 
  44134.6349     0.43101E+04 
  44166.8970     0.42717E+04 
  44199.1592     0.42297E+04 
  44231.4214     0.41844E+04 
  44263.6835     0.41360E+04 
  44295.9457     0.40849E+04 
  44328.2078     0.40311E+04 
  44360.4700     0.39747E+04 
  44392.7322     0.39157E+04 
  44424.9943     0.38543E+04 
  44457.2565     0.37903E+04 
  44489.5186     0.37240E+04 
  44521.7808     0.36558E+04 
  44554.0430     0.35859E+04 
  44586.3051     0.35149E+04 
  44618.5673     0.34433E+04 
  44650.8294     0.33717E+04 
  44683.0916     0.33005E+04 
  44715.3538     0.32300E+04 
  44747.6159     0.31606E+04 
  44779.8781     0.30925E+04 
  44812.1402     0.30258E+04 
  44844.4024     0.29608E+04 
  44876.6646     0.28974E+04 
  44908.9267     0.28358E+04 
  44941.1889     0.27761E+04 
  44973.4510     0.27182E+04 
  45005.7132     0.26624E+04 
  45037.9754     0.26086E+04 
  45070.2375     0.25569E+04 
  45102.4997     0.25073E+04 
  45134.7618     0.24597E+04 
  45167.0240     0.24141E+04 
  45199.2862     0.23706E+04 
  45231.5483     0.23289E+04 
  45263.8105     0.22891E+04 
  45296.0726     0.22510E+04 
  45328.3348     0.22145E+04 
  45360.5970     0.21795E+04 
  45392.8591     0.21458E+04 
  45425.1213     0.21132E+04 
  45457.3834     0.20816E+04 
  45489.6456     0.20510E+04 
  45521.9078     0.20211E+04 
  45554.1699     0.19919E+04 
  45586.4321     0.19633E+04 
  45618.6942     0.19351E+04 
  45650.9564     0.19075E+04 
  45683.2186     0.18801E+04 
  45715.4807     0.18531E+04 
  45747.7429     0.18263E+04 
  45780.0050     0.17995E+04 
  45812.2672     0.17728E+04 
  45844.5294     0.17461E+04 
  45876.7915     0.17192E+04 
  45909.0537     0.16923E+04 
  45941.3158     0.16653E+04 
  45973.5780     0.16381E+04 
  46005.8402     0.16110E+04 
  46038.1023     0.15838E+04 
  46070.3645     0.15567E+04 
  46102.6266     0.15296E+04 
  46134.8888     0.15027E+04 
  46167.1510     0.14758E+04 
  46199.4131     0.14491E+04 
  46231.6753     0.14225E+04 
  46263.9374     0.13961E+04 
  46296.1996     0.13700E+04 
  46328.4618     0.13440E+04 
  46360.7239     0.13184E+04 
  46392.9861     0.12931E+04 
  46425.2482     0.12682E+04 
  46457.5104     0.12438E+04 
  46489.7726     0.12198E+04 
  46522.0347     0.11963E+04 
  46554.2969     0.11732E+04 
  46586.5590     0.11507E+04 
  46618.8212     0.11287E+04 
  46651.0834     0.11072E+04 
  46683.3455     0.10862E+04 
  46715.6077     0.10657E+04 
  46747.8698     0.10458E+04 
  46780.1320     0.10263E+04 
  46812.3942     0.10073E+04 
  46844.6563     0.98885E+03 
  46876.9185     0.97084E+03 
  46909.1806     0.95328E+03 
  46941.4428     0.93617E+03 
  46973.7050     0.91949E+03 
  47005.9671     0.90323E+03 
  47038.2293     0.88736E+03 
  47070.4914     0.87187E+03 
  47102.7536     0.85674E+03 
  47135.0158     0.84194E+03 
  47167.2779     0.82746E+03 
  47199.5401     0.81327E+03 
  47231.8022     0.79936E+03 
  47264.0644     0.78571E+03 
  47296.3266     0.77230E+03 
  47328.5887     0.75912E+03 
  47360.8509     0.74617E+03 
  47393.1130     0.73343E+03 
  47425.3752     0.72089E+03 
  47457.6374     0.70854E+03 
  47489.8995     0.69639E+03 
  47522.1617     0.68441E+03 
  47554.4238     0.67260E+03 
  47586.6860     0.66095E+03 
  47618.9482     0.64946E+03 
  47651.2103     0.63812E+03 
  47683.4725     0.62693E+03 
  47715.7346     0.61589E+03 
  47747.9968     0.60501E+03 
  47780.2590     0.59428E+03 
  47812.5211     0.58372E+03 
  47844.7833     0.57331E+03 
  47877.0454     0.56307E+03 
  47909.3076     0.55299E+03 
  47941.5698     0.54307E+03 
  47973.8319     0.53332E+03 
  48006.0941     0.52373E+03 
  48038.3562     0.51430E+03 
  48070.6184     0.50504E+03 
  48102.8806     0.49595E+03 
  48135.1427     0.48702E+03 
  48167.4049     0.47827E+03 
  48199.6670     0.46968E+03 
  48231.9292     0.46127E+03 
  48264.1914     0.45302E+03 
  48296.4535     0.44494E+03 
  48328.7157     0.43702E+03 
  48360.9778     0.42927E+03 
  48393.2400     0.42168E+03 
  48425.5022     0.41425E+03 
  48457.7643     0.40697E+03 
  48490.0265     0.39984E+03 
  48522.2886     0.39286E+03 
  48554.5508     0.38603E+03 
  48586.8130     0.37933E+03 
  48619.0751     0.37278E+03 
  48651.3373     0.36635E+03 
  48683.5994     0.36006E+03 
  48715.8616     0.35390E+03 
  48748.1238     0.34786E+03 
  48780.3859     0.34193E+03 
  48812.6481     0.33613E+03 
  48844.9102     0.33044E+03 
  48877.1724     0.32485E+03 
  48909.4346     0.31937E+03 
  48941.6967     0.31400E+03 
  48973.9589     0.30872E+03 
  49006.2210     0.30354E+03 
  49038.4832     0.29846E+03 
  49070.7454     0.29346E+03 
  49103.0075     0.28856E+03 
  49135.2697     0.28374E+03 
  49167.5318     0.27901E+03 
  49199.7940     0.27436E+03 
  49232.0562     0.26979E+03 
  49264.3183     0.26530E+03 
  49296.5805     0.26089E+03 
  49328.8426     0.25656E+03 
  49361.1048     0.25230E+03 
  49393.3670     0.24812E+03 
  49425.6291     0.24401E+03 
  49457.8913     0.23997E+03 
  49490.1534     0.23600E+03 
  49522.4156     0.23211E+03 
  49554.6778     0.22828E+03 
  49586.9399     0.22452E+03 
  49619.2021     0.22083E+03 
  49651.4642     0.21721E+03 
  49683.7264     0.21365E+03 
  49715.9886     0.21016E+03 
  49748.2507     0.20673E+03 
  49780.5129     0.20336E+03 
  49812.7750     0.20006E+03 
  49845.0372     0.19682E+03 
  49877.2994     0.19364E+03 
  49909.5615     0.19051E+03 
  49941.8237     0.18745E+03 
  49974.0858     0.18444E+03 
  50006.3480     0.18149E+03 
  50038.6102     0.17860E+03 
  50070.8723     0.17575E+03 
  50103.1345     0.17297E+03 
  50135.3966     0.17023E+03 
  50167.6588     0.16755E+03 
  50199.9210     0.16491E+03 
  50232.1831     0.16232E+03 
  50264.4453     0.15979E+03 
  50296.7074     0.15729E+03 
  50328.9696     0.15485E+03 
  50361.2318     0.15245E+03 
  50393.4939     0.15009E+03 
  50425.7561     0.14778E+03 
  50458.0182     0.14550E+03 
  50490.2804     0.14327E+03 
  50522.5426     0.14108E+03 
  50554.8047     0.13893E+03 
  50587.0669     0.13681E+03 
  50619.3290     0.13473E+03 
  50651.5912     0.13269E+03 
  50683.8534     0.13069E+03 
  50716.1155     0.12872E+03 
  50748.3777     0.12678E+03 
  50780.6398     0.12488E+03 
  50812.9020     0.12301E+03 
  50845.1642     0.12117E+03 
  50877.4263     0.11936E+03 
  50909.6885     0.11759E+03 
  50941.9506     0.11584E+03 
  50974.2128     0.11413E+03 
  51006.4750     0.11244E+03 
  51038.7371     0.11079E+03 
  51070.9993     0.10916E+03 
  51103.2614     0.10756E+03 
  51135.5236     0.10598E+03 
  51167.7858     0.10444E+03 
  51200.0479     0.10291E+03 
  51232.3101     0.10142E+03 
  51264.5722     0.99948E+02 
  51296.8344     0.98503E+02 
  51329.0966     0.97082E+02 
  51361.3587     0.95685E+02 
  51393.6209     0.94311E+02 
  51425.8830     0.92961E+02 
  51458.1452     0.91633E+02 
  51490.4074     0.90328E+02 
  51522.6695     0.89044E+02 
  51554.9317     0.87782E+02 
  51587.1938     0.86541E+02 
  51619.4560     0.85320E+02 
  51651.7182     0.84120E+02 
  51683.9803     0.82939E+02 
  51716.2425     0.81778E+02 
  51748.5046     0.80636E+02 
  51780.7668     0.79513E+02 
  51813.0290     0.78409E+02 
  51845.2911     0.77322E+02 
  51877.5533     0.76253E+02 
  51909.8154     0.75201E+02 
  51942.0776     0.74167E+02 
  51974.3398     0.73149E+02 
  52006.6019     0.72147E+02 
  52038.8641     0.71161E+02 
  52071.1262     0.70191E+02 
  52103.3884     0.69237E+02 
  52135.6506     0.68297E+02 
  52167.9127     0.67373E+02 
  52200.1749     0.66463E+02 
  52232.4370     0.65567E+02 
  52264.6992     0.64685E+02 
  52296.9614     0.63816E+02 
  52329.2235     0.62962E+02 
  52361.4857     0.62120E+02 
  52393.7478     0.61291E+02 
  52426.0100     0.60475E+02 
  52458.2722     0.59672E+02 
  52490.5343     0.58881E+02 
  52522.7965     0.58101E+02 
  52555.0586     0.57334E+02 
  52587.3208     0.56578E+02 
  52619.5830     0.55833E+02 
  52651.8451     0.55100E+02 
  52684.1073     0.54378E+02 
  52716.3694     0.53666E+02 
  52748.6316     0.52965E+02 
  52780.8938     0.52274E+02 
  52813.1559     0.51594E+02 
  52845.4181     0.50923E+02 
  52877.6802     0.50263E+02 
  52909.9424     0.49612E+02 
  52942.2046     0.48970E+02 
  52974.4667     0.48338E+02 
  53006.7289     0.47715E+02 
  53038.9910     0.47101E+02 
  53071.2532     0.46496E+02 
  53103.5154     0.45900E+02 
  53135.7775     0.45312E+02 
  53168.0397     0.44733E+02 
  53200.3018     0.44161E+02 
  53232.5640     0.43598E+02 
  53264.8262     0.43043E+02 
  53297.0883     0.42496E+02 
  53329.3505     0.41956E+02 
  53361.6126     0.41424E+02 
  53393.8748     0.40900E+02 
  53426.1370     0.40382E+02 
  53458.3991     0.39872E+02 
  53490.6613     0.39369E+02 
  53522.9234     0.38873E+02 
  53555.1856     0.38384E+02 
  53587.4478     0.37901E+02 
  53619.7099     0.37425E+02 
  53651.9721     0.36955E+02 
  53684.2342     0.36492E+02 
  53716.4964     0.36035E+02 
  53748.7586     0.35584E+02 
  53781.0207     0.35139E+02 
  53813.2829     0.34700E+02 
  53845.5450     0.34267E+02 
  53877.8072     0.33839E+02 
  53910.0694     0.33418E+02 
  53942.3315     0.33001E+02 
  53974.5937     0.32591E+02 
  54006.8558     0.32185E+02 
  54039.1180     0.31785E+02 
  54071.3802     0.31390E+02 
  54103.6423     0.31000E+02 
  54135.9045     0.30615E+02 
  54168.1666     0.30235E+02 
  54200.4288     0.29860E+02 
  54232.6910     0.29490E+02 
  54264.9531     0.29125E+02 
  54297.2153     0.28764E+02 
  54329.4774     0.28407E+02 
  54361.7396     0.28055E+02 
  54394.0018     0.27708E+02 
  54426.2639     0.27365E+02 
  54458.5261     0.27026E+02 
  54490.7882     0.26691E+02 
  54523.0504     0.26361E+02 
  54555.3126     0.26034E+02 
  54587.5747     0.25712E+02 
  54619.8369     0.25393E+02 
  54652.0990     0.25079E+02 
  54684.3612     0.24768E+02 
  54716.6234     0.24461E+02 
  54748.8855     0.24158E+02 
  54781.1477     0.23858E+02 
  54813.4098     0.23562E+02 
  54845.6720     0.23270E+02 
  54877.9342     0.22981E+02 
  54910.1963     0.22695E+02 
  54942.4585     0.22413E+02 
  54974.7206     0.22134E+02 
  55006.9828     0.21859E+02 
  55039.2450     0.21587E+02 
  55071.5071     0.21317E+02 
  55103.7693     0.21052E+02 
  55136.0314     0.20789E+02 
  55168.2936     0.20529E+02 
  55200.5558     0.20272E+02 
  55232.8179     0.20018E+02 
  55265.0801     0.19768E+02 
  55297.3422     0.19520E+02 
  55329.6044     0.19274E+02 
  55361.8666     0.19032E+02 
  55394.1287     0.18793E+02 
  55426.3909     0.18556E+02 
  55458.6530     0.18322E+02 
  55490.9152     0.18090E+02 
  55523.1774     0.17861E+02 
  55555.4395     0.17635E+02 
  55587.7017     0.17411E+02 
  55619.9638     0.17190E+02 
  55652.2260     0.16971E+02 
  55684.4882     0.16754E+02 
  55716.7503     0.16540E+02 
  55749.0125     0.16329E+02 
  55781.2746     0.16119E+02 
  55813.5368     0.15912E+02 
  55845.7990     0.15707E+02 
  55878.0611     0.15505E+02 
  55910.3233     0.15305E+02 
  55942.5854     0.15107E+02 
  55974.8476     0.14911E+02 
  56007.1098     0.14717E+02 
  56039.3719     0.14525E+02 
  56071.6341     0.14335E+02 
  56103.8962     0.14148E+02 
  56136.1584     0.13962E+02 
  56168.4206     0.13778E+02 
  56200.6827     0.13597E+02 
  56232.9449     0.13417E+02 
  56265.2070     0.13239E+02 
  56297.4692     0.13063E+02 
  56329.7314     0.12889E+02 
  56361.9935     0.12717E+02 
  56394.2557     0.12547E+02 
  56426.5178     0.12378E+02 
  56458.7800     0.12211E+02 
  56491.0422     0.12046E+02 
  56523.3043     0.11883E+02 
  56555.5665     0.11721E+02 
  56587.8286     0.11561E+02 
  56620.0908     0.11403E+02 
  56652.3530     0.11247E+02 
  56684.6151     0.11092E+02 
  56716.8773     0.10938E+02 
  56749.1394     0.10787E+02 
  56781.4016     0.10636E+02 
  56813.6638     0.10488E+02 
  56845.9259     0.10341E+02 
  56878.1881     0.10195E+02 
  56910.4502     0.10051E+02 
  56942.7124     0.99086E+01 
  56974.9746     0.97675E+01 
  57007.2367     0.96279E+01 
  57039.4989     0.94897E+01 
  57071.7610     0.93529E+01 
  57104.0232     0.92176E+01 
  57136.2854     0.90836E+01 
  57168.5475     0.89510E+01 
  57200.8097     0.88198E+01 
  57233.0718     0.86899E+01 
  57265.3340     0.85613E+01 
  57297.5962     0.84341E+01 
  57329.8583     0.83082E+01 
  57362.1205     0.81835E+01 
  57394.3826     0.80602E+01 
  57426.6448     0.79381E+01 
  57458.9070     0.78173E+01 
  57491.1691     0.76977E+01 
  57523.4313     0.75793E+01 
  57555.6934     0.74621E+01 
  57587.9556     0.73462E+01 
  57620.2178     0.72314E+01 
  57652.4799     0.71179E+01 
  57684.7421     0.70055E+01 
  57717.0042     0.68942E+01 
  57749.2664     0.67841E+01 
  57781.5286     0.66751E+01 
  57813.7907     0.65673E+01 
  57846.0529     0.64606E+01 
  57878.3150     0.63550E+01 
  57910.5772     0.62504E+01 
  57942.8394     0.61470E+01 
  57975.1015     0.60446E+01 
  58007.3637     0.59434E+01 
  58039.6258     0.58431E+01 
  58071.8880     0.57439E+01 
  58104.1502     0.56458E+01 
  58136.4123     0.55487E+01 
  58168.6745     0.54526E+01 
  58200.9366     0.53575E+01 
  58233.1988     0.52634E+01 
  58265.4610     0.51704E+01 
  58297.7231     0.50783E+01 
  58329.9853     0.49872E+01 
  58362.2474     0.48971E+01 
  58394.5096     0.48079E+01 
  58426.7718     0.47197E+01 
  58459.0339     0.46325E+01 
  58491.2961     0.45462E+01 
  58523.5582     0.44608E+01 
  58555.8204     0.43764E+01 
  58588.0826     0.42929E+01 
  58620.3447     0.42104E+01 
  58652.6069     0.41287E+01 
  58684.8690     0.40480E+01 
  58717.1312     0.39681E+01 
  58749.3934     0.38892E+01 
  58781.6555     0.38111E+01 
  58813.9177     0.37339E+01 
  58846.1798     0.36576E+01 
  58878.4420     0.35822E+01 
  58910.7042     0.35076E+01 
  58942.9663     0.34340E+01 
  58975.2285     0.33611E+01 
  59007.4906     0.32892E+01 
  59039.7528     0.32180E+01 
  59072.0150     0.31478E+01 
  59104.2771     0.30783E+01 
  59136.5393     0.30097E+01 
  59168.8014     0.29420E+01 
  59201.0636     0.28750E+01 
  59233.3258     0.28089E+01 
  59265.5879     0.27436E+01 
  59297.8501     0.26792E+01 
  59330.1122     0.26155E+01 
  59362.3744     0.25526E+01 
  59394.6366     0.24906E+01 
  59426.8987     0.24294E+01 
  59459.1609     0.23689E+01 
  59491.4230     0.23093E+01 
  59523.6852     0.22504E+01 
  59555.9474     0.21924E+01 
  59588.2095     0.21351E+01 
  59620.4717     0.20786E+01 
  59652.7338     0.20230E+01 
  59684.9960     0.19680E+01 
  59717.2582     0.19139E+01 
  59749.5203     0.18606E+01 
  59781.7825     0.18080E+01 
  59814.0446     0.17562E+01 
  59846.3068     0.17052E+01 
  59878.5690     0.16549E+01 
  59910.8311     0.16054E+01 
  59943.0933     0.15567E+01 
  59975.3554     0.15087E+01 
  60007.6176     0.14616E+01 
  60039.8798     0.14151E+01 
  60072.1419     0.13695E+01 
  60104.4041     0.13246E+01 
  60136.6662     0.12804E+01 
  60168.9284     0.12370E+01 
  60201.1906     0.11944E+01 
  60233.4527     0.11526E+01 
  60265.7149     0.11115E+01 
  60297.9770     0.10711E+01 
  60330.2392     0.10315E+01 
  60362.5014     0.99269E+00 
  60394.7635     0.95462E+00 
  60427.0257     0.91731E+00 
  60459.2878     0.88076E+00 
  60491.5500     0.84496E+00 
  60523.8122     0.80992E+00 
  60556.0743     0.77565E+00 
  60588.3365     0.74213E+00 
  60620.5986     0.70937E+00 
  60652.8608     0.67738E+00 
  60685.1230     0.64614E+00 
  60717.3851     0.61567E+00 
  60749.6473     0.58597E+00 
  60781.9094     0.55703E+00 
  60814.1716     0.52886E+00 
  60846.4338     0.50146E+00 
  60878.6959     0.47482E+00 
  60910.9581     0.44896E+00 
  60943.2202     0.42388E+00 
  60975.4824     0.39957E+00 
  61007.7446     0.37603E+00 
  61040.0067     0.35328E+00 
  61072.2689     0.33130E+00 
  61104.5310     0.31011E+00 
  61136.7932     0.28971E+00 
  61169.0554     0.27010E+00 
  61201.3175     0.25128E+00 
  61233.5797     0.23325E+00 
  61265.8418     0.21602E+00 
  61298.1040     0.19959E+00 
  61330.3662     0.18396E+00 
  61362.6283     0.16914E+00 
  61394.8905     0.15513E+00 
  61427.1526     0.14193E+00 
  61459.4148     0.12954E+00 
  61491.6770     0.11798E+00 
  61523.9391     0.10724E+00 
  61556.2013     0.97334E-01 
  61588.4634     0.88255E-01 
  61620.7256     0.80012E-01 
  61652.9878     0.72609E-01 
  61685.2499     0.66051E-01 
  61717.5121     0.60341E-01 
  61749.7742     0.55485E-01 
  61782.0364     0.51487E-01 
  61814.2986     0.48352E-01 
  61846.5607     0.46085E-01 
  61878.8229     0.44691E-01 
  61911.0850     0.44175E-01 
  61943.3472     0.44543E-01 
  61975.6094     0.45800E-01 
  62007.8715     0.47952E-01 
  62040.1337     0.51004E-01 
  62072.3958     0.54962E-01 
  62104.6580     0.59833E-01 
  62136.9202     0.65622E-01 
  62169.1823     0.72336E-01 
  62201.4445     0.79981E-01 
  62233.7066     0.88563E-01 
  62265.9688     0.98090E-01 
  62298.2310     0.10857E+00 
  62330.4931     0.12000E+00 
  62362.7553     0.13241E+00 
  62395.0174     0.14578E+00 
  62427.2796     0.16013E+00 
  62459.5418     0.17548E+00 
  62491.8039     0.19181E+00 
  62524.0661     0.20915E+00 
  62556.3282     0.22750E+00 
  62588.5904     0.24687E+00 
  62620.8526     0.26727E+00 
  62653.1147     0.28871E+00 
  62685.3769     0.31119E+00 
  62717.6390     0.33472E+00 
  62749.9012     0.35932E+00 
  62782.1634     0.38498E+00 
  62814.4255     0.41173E+00 
  62846.6877     0.43957E+00 
  62878.9498     0.46851E+00 
  62911.2120     0.49857E+00 
  62943.4742     0.52974E+00 
  62975.7363     0.56204E+00 
  63007.9985     0.59548E+00 
  63040.2606     0.63007E+00 
  63072.5228     0.66583E+00 
  63104.7850     0.70276E+00 
  63137.0471     0.74087E+00 
  63169.3093     0.78018E+00 
  63201.5714     0.82070E+00 
  63233.8336     0.86244E+00 
  63266.0958     0.90540E+00 
  63298.3579     0.94961E+00 
  63330.6201     0.99508E+00 
  63362.8822     0.10418E+01 
  63395.1444     0.10898E+01 
  63427.4066     0.11391E+01 
  63459.6687     0.11898E+01 
  63491.9309     0.12417E+01 
  63524.1930     0.12950E+01 
  63556.4552     0.13496E+01 
  63588.7174     0.14056E+01 
  63620.9795     0.14629E+01 
  63653.2417     0.15217E+01 
  63685.5038     0.15818E+01 
  63717.7660     0.16434E+01 
  63750.0282     0.17064E+01 
  63782.2903     0.17709E+01 
  63814.5525     0.18368E+01 
  63846.8146     0.19042E+01 
  63879.0768     0.19731E+01 
  63911.3390     0.20436E+01 
  63943.6011     0.21155E+01 
  63975.8633     0.21891E+01 
  64008.1254     0.22641E+01 
  64040.3876     0.23408E+01 
  64072.6498     0.24191E+01 
  64104.9119     0.24990E+01 
  64137.1741     0.25805E+01 
  64169.4362     0.26637E+01 
  64201.6984     0.27486E+01 
  64233.9606     0.28352E+01 
  64266.2227     0.29235E+01 
  64298.4849     0.30135E+01 
  64330.7470     0.31053E+01 
  64363.0092     0.31989E+01 
  64395.2714     0.32942E+01 
  64427.5335     0.33914E+01 
  64459.7957     0.34905E+01 
  64492.0578     0.35914E+01 
  64524.3200     0.36942E+01 
  64556.5822     0.37989E+01 
  64588.8443     0.39055E+01 
  64621.1065     0.40141E+01 
  64653.3686     0.41247E+01 
  64685.6308     0.42373E+01 
  64717.8930     0.43519E+01 
  64750.1551     0.44686E+01 
  64782.4173     0.45874E+01 
  64814.6794     0.47082E+01 
  64846.9416     0.48312E+01 
  64879.2038     0.49564E+01 
  64911.4659     0.50837E+01 
  64943.7281     0.52133E+01 
  64975.9902     0.53451E+01 
  65008.2524     0.54792E+01 
  65040.5146     0.56156E+01 
  65072.7767     0.57543E+01 
  65105.0389     0.58954E+01 
  65137.3010     0.60388E+01 
  65169.5632     0.61847E+01 
  65201.8254     0.63330E+01 
  65234.0875     0.64839E+01 
  65266.3497     0.66372E+01 
  65298.6118     0.67931E+01 
  65330.8740     0.69516E+01 
  65363.1362     0.71127E+01 
  65395.3983     0.72764E+01 
  65427.6605     0.74428E+01 
  65459.9226     0.76120E+01 
  65492.1848     0.77839E+01 
  65524.4470     0.79586E+01 
  65556.7091     0.81361E+01 
  65588.9713     0.83165E+01 
  65621.2334     0.84998E+01 
  65653.4956     0.86861E+01 
  65685.7578     0.88754E+01 
  65718.0199     0.90676E+01 
  65750.2821     0.92630E+01 
  65782.5442     0.94614E+01 
  65814.8064     0.96630E+01 
  65847.0686     0.98678E+01 
  65879.3307     0.10076E+02 
  65911.5929     0.10287E+02 
  65943.8550     0.10502E+02 
  65976.1172     0.10720E+02 
  66008.3794     0.10941E+02 
  66040.6415     0.11166E+02 
  66072.9037     0.11395E+02 
  66105.1658     0.11627E+02 
  66137.4280     0.11862E+02 
  66169.6902     0.12102E+02 
  66201.9523     0.12345E+02 
  66234.2145     0.12591E+02 
  66266.4766     0.12842E+02 
  66298.7388     0.13096E+02 
  66331.0010     0.13355E+02 
  66363.2631     0.13617E+02 
  66395.5253     0.13884E+02 
  66427.7874     0.14154E+02 
  66460.0496     0.14429E+02 
  66492.3118     0.14708E+02 
  66524.5739     0.14991E+02 
  66556.8361     0.15279E+02 
  66589.0982     0.15570E+02 
  66621.3604     0.15867E+02 
  66653.6226     0.16168E+02 
  66685.8847     0.16473E+02 
  66718.1469     0.16784E+02 
  66750.4090     0.17099E+02 
  66782.6712     0.17418E+02 
  66814.9334     0.17743E+02 
  66847.1955     0.18072E+02 
  66879.4577     0.18407E+02 
  66911.7198     0.18747E+02 
  66943.9820     0.19091E+02 
  66976.2442     0.19442E+02 
  67008.5063     0.19797E+02 
  67040.7685     0.20158E+02 
  67073.0306     0.20524E+02 
  67105.2928     0.20896E+02 
  67137.5550     0.21273E+02 
  67169.8171     0.21656E+02 
  67202.0793     0.22045E+02 
  67234.3414     0.22440E+02 
  67266.6036     0.22841E+02 
  67298.8658     0.23248E+02 
  67331.1279     0.23661E+02 
  67363.3901     0.24081E+02 
  67395.6522     0.24507E+02 
  67427.9144     0.24939E+02 
  67460.1766     0.25378E+02 
  67492.4387     0.25823E+02 
  67524.7009     0.26275E+02 
  67556.9630     0.26734E+02 
  67589.2252     0.27200E+02 
  67621.4874     0.27673E+02 
  67653.7495     0.28154E+02 
  67686.0117     0.28641E+02 
  67718.2738     0.29136E+02 
  67750.5360     0.29639E+02 
  67782.7982     0.30149E+02 
  67815.0603     0.30667E+02 
  67847.3225     0.31193E+02 
  67879.5846     0.31727E+02 
  67911.8468     0.32269E+02 
  67944.1090     0.32819E+02 
  67976.3711     0.33377E+02 
  68008.6333     0.33945E+02 
  68040.8954     0.34520E+02 
  68073.1576     0.35105E+02 
  68105.4198     0.35698E+02 
  68137.6819     0.36301E+02 
  68169.9441     0.36913E+02 
  68202.2062     0.37534E+02 
  68234.4684     0.38165E+02 
  68266.7306     0.38805E+02 
  68298.9927     0.39455E+02 
  68331.2549     0.40116E+02 
  68363.5170     0.40786E+02 
  68395.7792     0.41467E+02 
  68428.0414     0.42158E+02 
  68460.3035     0.42860E+02 
  68492.5657     0.43572E+02 
  68524.8278     0.44296E+02 
  68557.0900     0.45031E+02 
  68589.3522     0.45777E+02 
  68621.6143     0.46535E+02 
  68653.8765     0.47305E+02 
  68686.1386     0.48086E+02 
  68718.4008     0.48880E+02 
  68750.6630     0.49686E+02 
  68782.9251     0.50504E+02 
  68815.1873     0.51336E+02 
  68847.4494     0.52180E+02 
  68879.7116     0.53037E+02 
  68911.9738     0.53908E+02 
  68944.2359     0.54793E+02 
  68976.4981     0.55691E+02 
  69008.7602     0.56604E+02 
  69041.0224     0.57531E+02 
  69073.2846     0.58472E+02 
  69105.5467     0.59428E+02 
  69137.8089     0.60400E+02 
  69170.0710     0.61387E+02 
  69202.3332     0.62389E+02 
  69234.5954     0.63407E+02 
  69266.8575     0.64442E+02 
  69299.1197     0.65493E+02 
  69331.3818     0.66560E+02 
  69363.6440     0.67645E+02 
  69395.9062     0.68747E+02 
  69428.1683     0.69866E+02 
  69460.4305     0.71004E+02 
  69492.6926     0.72160E+02 
  69524.9548     0.73334E+02 
  69557.2170     0.74527E+02 
  69589.4791     0.75739E+02 
  69621.7413     0.76971E+02 
  69654.0034     0.78223E+02 
  69686.2656     0.79495E+02 
  69718.5278     0.80788E+02 
  69750.7899     0.82102E+02 
  69783.0521     0.83437E+02 
  69815.3142     0.84794E+02 
  69847.5764     0.86173E+02 
  69879.8386     0.87575E+02 
  69912.1007     0.88999E+02 
  69944.3629     0.90447E+02 
  69976.6250     0.91919E+02 
  70008.8872     0.93415E+02 
  70041.1494     0.94935E+02 
  70073.4115     0.96481E+02 
  70105.6737     0.98052E+02 
  70137.9358     0.99650E+02 
  70170.1980     0.10127E+03 
  70202.4602     0.10292E+03 
  70234.7223     0.10460E+03 
  70266.9845     0.10631E+03 
  70299.2466     0.10805E+03 
  70331.5088     0.10981E+03 
  70363.7710     0.11160E+03 
  70396.0331     0.11343E+03 
  70428.2953     0.11528E+03 
  70460.5574     0.11717E+03 
  70492.8196     0.11909E+03 
  70525.0818     0.12104E+03 
  70557.3439     0.12302E+03 
  70589.6061     0.12504E+03 
  70621.8682     0.12709E+03 
  70654.1304     0.12918E+03 
  70686.3926     0.13130E+03 
  70718.6547     0.13346E+03 
  70750.9169     0.13566E+03 
  70783.1790     0.13790E+03 
  70815.4412     0.14017E+03 
  70847.7034     0.14248E+03 
  70879.9655     0.14484E+03 
  70912.2277     0.14723E+03 
  70944.4898     0.14967E+03 
  70976.7520     0.15215E+03 
  71009.0142     0.15467E+03 
  71041.2763     0.15724E+03 
  71073.5385     0.15985E+03 
  71105.8006     0.16251E+03 
  71138.0628     0.16521E+03 
  71170.3250     0.16797E+03 
  71202.5871     0.17077E+03 
  71234.8493     0.17362E+03 
  71267.1114     0.17652E+03 
  71299.3736     0.17948E+03 
  71331.6358     0.18249E+03 
  71363.8979     0.18555E+03 
  71396.1601     0.18867E+03 
  71428.4222     0.19184E+03 
  71460.6844     0.19508E+03 
  71492.9466     0.19837E+03 
  71525.2087     0.20172E+03 
  71557.4709     0.20513E+03 
  71589.7330     0.20861E+03 
  71621.9952     0.21215E+03 
  71654.2574     0.21575E+03 
  71686.5195     0.21942E+03 
  71718.7817     0.22316E+03 
  71751.0438     0.22697E+03 
  71783.3060     0.23085E+03 
  71815.5682     0.23480E+03 
  71847.8303     0.23883E+03 
  71880.0925     0.24293E+03 
  71912.3546     0.24711E+03 
  71944.6168     0.25137E+03 
  71976.8790     0.25571E+03 
  72009.1411     0.26013E+03 
  72041.4033     0.26464E+03 
  72073.6654     0.26923E+03 
  72105.9276     0.27391E+03 
  72138.1898     0.27868E+03 
  72170.4519     0.28354E+03 
  72202.7141     0.28850E+03 
  72234.9762     0.29355E+03 
  72267.2384     0.29870E+03 
  72299.5006     0.30395E+03 
  72331.7627     0.30931E+03 
  72364.0249     0.31477E+03 
  72396.2870     0.32033E+03 
  72428.5492     0.32601E+03 
  72460.8114     0.33180E+03 
  72493.0735     0.33771E+03 
  72525.3357     0.34373E+03 
  72557.5978     0.34987E+03 
  72589.8600     0.35614E+03 
