  32262.1600     0.53220E+03 
  32294.4222     0.53439E+03 
  32326.6843     0.53660E+03 
  32358.9465     0.53881E+03 
  32391.2086     0.54105E+03 
  32423.4708     0.54329E+03 
  32455.7330     0.54555E+03 
  32487.9951     0.54783E+03 
  32520.2573     0.55011E+03 
  32552.5194     0.55242E+03 
  32584.7816     0.55474E+03 
  32617.0438     0.55707E+03 
  32649.3059     0.55941E+03 
  32681.5681     0.56178E+03 
  32713.8302     0.56415E+03 
  32746.0924     0.56654E+03 
  32778.3546     0.56895E+03 
  32810.6167     0.57137E+03 
  32842.8789     0.57381E+03 
  32875.1410     0.57626E+03 
  32907.4032     0.57873E+03 
  32939.6654     0.58122E+03 
  32971.9275     0.58372E+03 
  33004.1897     0.58623E+03 
  33036.4518     0.58877E+03 
  33068.7140     0.59131E+03 
  33100.9762     0.59388E+03 
  33133.2383     0.59646E+03 
  33165.5005     0.59906E+03 
  33197.7626     0.60167E+03 
  33230.0248     0.60430E+03 
  33262.2870     0.60695E+03 
  33294.5491     0.60962E+03 
  33326.8113     0.61230E+03 
  33359.0734     0.61500E+03 
  33391.3356     0.61772E+03 
  33423.5978     0.62045E+03 
  33455.8599     0.62320E+03 
  33488.1221     0.62597E+03 
  33520.3842     0.62876E+03 
  33552.6464     0.63157E+03 
  33584.9086     0.63439E+03 
  33617.1707     0.63724E+03 
  33649.4329     0.64010E+03 
  33681.6950     0.64298E+03 
  33713.9572     0.64588E+03 
  33746.2194     0.64880E+03 
  33778.4815     0.65173E+03 
  33810.7437     0.65469E+03 
  33843.0058     0.65767E+03 
  33875.2680     0.66066E+03 
  33907.5302     0.66368E+03 
  33939.7923     0.66671E+03 
  33972.0545     0.66977E+03 
  34004.3166     0.67284E+03 
  34036.5788     0.67594E+03 
  34068.8410     0.67905E+03 
  34101.1031     0.68219E+03 
  34133.3653     0.68535E+03 
  34165.6274     0.68853E+03 
  34197.8896     0.69173E+03 
  34230.1518     0.69495E+03 
  34262.4139     0.69819E+03 
  34294.6761     0.70146E+03 
  34326.9382     0.70474E+03 
  34359.2004     0.70805E+03 
  34391.4626     0.71138E+03 
  34423.7247     0.71473E+03 
  34455.9869     0.71811E+03 
  34488.2490     0.72151E+03 
  34520.5112     0.72493E+03 
  34552.7734     0.72837E+03 
  34585.0355     0.73184E+03 
  34617.2977     0.73533E+03 
  34649.5598     0.73884E+03 
  34681.8220     0.74238E+03 
  34714.0842     0.74595E+03 
  34746.3463     0.74953E+03 
  34778.6085     0.75314E+03 
  34810.8706     0.75678E+03 
  34843.1328     0.76044E+03 
  34875.3950     0.76413E+03 
  34907.6571     0.76784E+03 
  34939.9193     0.77157E+03 
  34972.1814     0.77534E+03 
  35004.4436     0.77912E+03 
  35036.7058     0.78294E+03 
  35068.9679     0.78678E+03 
  35101.2301     0.79065E+03 
  35133.4922     0.79454E+03 
  35165.7544     0.79846E+03 
  35198.0166     0.80241E+03 
  35230.2787     0.80639E+03 
  35262.5409     0.81039E+03 
  35294.8030     0.81442E+03 
  35327.0652     0.81848E+03 
  35359.3274     0.82257E+03 
  35391.5895     0.82669E+03 
  35423.8517     0.83083E+03 
  35456.1138     0.83501E+03 
  35488.3760     0.83921E+03 
  35520.6382     0.84345E+03 
  35552.9003     0.84771E+03 
  35585.1625     0.85200E+03 
  35617.4246     0.85633E+03 
  35649.6868     0.86068E+03 
  35681.9490     0.86507E+03 
  35714.2111     0.86949E+03 
  35746.4733     0.87394E+03 
  35778.7354     0.87842E+03 
  35810.9976     0.88293E+03 
  35843.2598     0.88748E+03 
  35875.5219     0.89205E+03 
  35907.7841     0.89666E+03 
  35940.0462     0.90131E+03 
  35972.3084     0.90598E+03 
  36004.5706     0.91070E+03 
  36036.8327     0.91544E+03 
  36069.0949     0.92022E+03 
  36101.3570     0.92503E+03 
  36133.6192     0.92988E+03 
  36165.8814     0.93477E+03 
  36198.1435     0.93969E+03 
  36230.4057     0.94464E+03 
  36262.6678     0.94964E+03 
  36294.9300     0.95467E+03 
  36327.1922     0.95973E+03 
  36359.4543     0.96484E+03 
  36391.7165     0.96998E+03 
  36423.9786     0.97516E+03 
  36456.2408     0.98037E+03 
  36488.5030     0.98563E+03 
  36520.7651     0.99092E+03 
  36553.0273     0.99626E+03 
  36585.2894     0.10016E+04 
  36617.5516     0.10070E+04 
  36649.8138     0.10125E+04 
  36682.0759     0.10180E+04 
  36714.3381     0.10235E+04 
  36746.6002     0.10291E+04 
  36778.8624     0.10347E+04 
  36811.1246     0.10404E+04 
  36843.3867     0.10461E+04 
  36875.6489     0.10518E+04 
  36907.9110     0.10576E+04 
  36940.1732     0.10635E+04 
  36972.4354     0.10693E+04 
  37004.6975     0.10753E+04 
  37036.9597     0.10812E+04 
  37069.2218     0.10873E+04 
  37101.4840     0.10933E+04 
  37133.7462     0.10994E+04 
  37166.0083     0.11056E+04 
  37198.2705     0.11118E+04 
  37230.5326     0.11180E+04 
  37262.7948     0.11243E+04 
  37295.0570     0.11307E+04 
  37327.3191     0.11371E+04 
  37359.5813     0.11435E+04 
  37391.8434     0.11500E+04 
  37424.1056     0.11566E+04 
  37456.3678     0.11632E+04 
  37488.6299     0.11698E+04 
  37520.8921     0.11765E+04 
  37553.1542     0.11833E+04 
  37585.4164     0.11901E+04 
  37617.6786     0.11969E+04 
  37649.9407     0.12039E+04 
  37682.2029     0.12108E+04 
  37714.4650     0.12179E+04 
  37746.7272     0.12249E+04 
  37778.9894     0.12321E+04 
  37811.2515     0.12393E+04 
  37843.5137     0.12465E+04 
  37875.7758     0.12538E+04 
  37908.0380     0.12612E+04 
  37940.3002     0.12686E+04 
  37972.5623     0.12761E+04 
  38004.8245     0.12837E+04 
  38037.0866     0.12913E+04 
  38069.3488     0.12989E+04 
  38101.6110     0.13067E+04 
  38133.8731     0.13145E+04 
  38166.1353     0.13223E+04 
  38198.3974     0.13303E+04 
  38230.6596     0.13383E+04 
  38262.9218     0.13463E+04 
  38295.1839     0.13544E+04 
  38327.4461     0.13626E+04 
  38359.7082     0.13709E+04 
  38391.9704     0.13792E+04 
  38424.2326     0.13876E+04 
  38456.4947     0.13961E+04 
  38488.7569     0.14046E+04 
  38521.0190     0.14132E+04 
  38553.2812     0.14219E+04 
  38585.5434     0.14306E+04 
  38617.8055     0.14394E+04 
  38650.0677     0.14483E+04 
  38682.3298     0.14573E+04 
  38714.5920     0.14664E+04 
  38746.8542     0.14755E+04 
  38779.1163     0.14847E+04 
  38811.3785     0.14940E+04 
  38843.6406     0.15033E+04 
  38875.9028     0.15128E+04 
  38908.1650     0.15223E+04 
  38940.4271     0.15319E+04 
  38972.6893     0.15416E+04 
  39004.9514     0.15513E+04 
  39037.2136     0.15612E+04 
  39069.4758     0.15711E+04 
  39101.7379     0.15811E+04 
  39134.0001     0.15912E+04 
  39166.2622     0.16014E+04 
  39198.5244     0.16117E+04 
  39230.7866     0.16221E+04 
  39263.0487     0.16326E+04 
  39295.3109     0.16431E+04 
  39327.5730     0.16538E+04 
  39359.8352     0.16645E+04 
  39392.0974     0.16754E+04 
  39424.3595     0.16863E+04 
  39456.6217     0.16973E+04 
  39488.8838     0.17085E+04 
  39521.1460     0.17197E+04 
  39553.4082     0.17310E+04 
  39585.6703     0.17425E+04 
  39617.9325     0.17540E+04 
  39650.1946     0.17657E+04 
  39682.4568     0.17774E+04 
  39714.7190     0.17892E+04 
  39746.9811     0.18012E+04 
  39779.2433     0.18133E+04 
  39811.5054     0.18255E+04 
  39843.7676     0.18377E+04 
  39876.0298     0.18501E+04 
  39908.2919     0.18627E+04 
  39940.5541     0.18753E+04 
  39972.8162     0.18880E+04 
  40005.0784     0.19009E+04 
  40037.3406     0.19139E+04 
  40069.6027     0.19270E+04 
  40101.8649     0.19402E+04 
  40134.1270     0.19536E+04 
  40166.3892     0.19670E+04 
  40198.6514     0.19806E+04 
  40230.9135     0.19944E+04 
  40263.1757     0.20082E+04 
  40295.4378     0.20222E+04 
  40327.7000     0.20363E+04 
  40359.9622     0.20506E+04 
  40392.2243     0.20650E+04 
  40424.4865     0.20795E+04 
  40456.7486     0.20942E+04 
  40489.0108     0.21090E+04 
  40521.2730     0.21240E+04 
  40553.5351     0.21390E+04 
  40585.7973     0.21543E+04 
  40618.0594     0.21697E+04 
  40650.3216     0.21852E+04 
  40682.5838     0.22009E+04 
  40714.8459     0.22168E+04 
  40747.1081     0.22327E+04 
  40779.3702     0.22489E+04 
  40811.6324     0.22652E+04 
  40843.8946     0.22817E+04 
  40876.1567     0.22983E+04 
  40908.4189     0.23151E+04 
  40940.6810     0.23321E+04 
  40972.9432     0.23492E+04 
  41005.2054     0.23666E+04 
  41037.4675     0.23840E+04 
  41069.7297     0.24017E+04 
  41101.9918     0.24195E+04 
  41134.2540     0.24376E+04 
  41166.5162     0.24558E+04 
  41198.7783     0.24742E+04 
  41231.0405     0.24927E+04 
  41263.3026     0.25115E+04 
  41295.5648     0.25304E+04 
  41327.8270     0.25496E+04 
  41360.0891     0.25690E+04 
  41392.3513     0.25885E+04 
  41424.6134     0.26083E+04 
  41456.8756     0.26282E+04 
  41489.1378     0.26484E+04 
  41521.3999     0.26687E+04 
  41553.6621     0.26893E+04 
  41585.9242     0.27101E+04 
  41618.1864     0.27312E+04 
  41650.4486     0.27524E+04 
  41682.7107     0.27739E+04 
  41714.9729     0.27956E+04 
  41747.2350     0.28175E+04 
  41779.4972     0.28397E+04 
  41811.7594     0.28621E+04 
  41844.0215     0.28847E+04 
  41876.2837     0.29076E+04 
  41908.5458     0.29308E+04 
  41940.8080     0.29542E+04 
  41973.0702     0.29778E+04 
  42005.3323     0.30017E+04 
  42037.5945     0.30259E+04 
  42069.8566     0.30503E+04 
  42102.1188     0.30750E+04 
  42134.3810     0.31000E+04 
  42166.6431     0.31252E+04 
  42198.9053     0.31508E+04 
  42231.1674     0.31766E+04 
  42263.4296     0.32027E+04 
  42295.6918     0.32291E+04 
  42327.9539     0.32558E+04 
  42360.2161     0.32828E+04 
  42392.4782     0.33101E+04 
  42424.7404     0.33377E+04 
  42457.0026     0.33656E+04 
  42489.2647     0.33939E+04 
  42521.5269     0.34224E+04 
  42553.7890     0.34513E+04 
  42586.0512     0.34806E+04 
  42618.3134     0.35101E+04 
  42650.5755     0.35401E+04 
  42682.8377     0.35703E+04 
  42715.0998     0.36009E+04 
  42747.3620     0.36319E+04 
  42779.6242     0.36633E+04 
  42811.8863     0.36950E+04 
  42844.1485     0.37271E+04 
  42876.4106     0.37596E+04 
  42908.6728     0.37924E+04 
  42940.9350     0.38257E+04 
  42973.1971     0.38593E+04 
  43005.4593     0.38934E+04 
  43037.7214     0.39279E+04 
  43069.9836     0.39628E+04 
  43102.2458     0.39981E+04 
  43134.5079     0.40339E+04 
  43166.7701     0.40701E+04 
  43199.0322     0.41067E+04 
  43231.2944     0.41438E+04 
  43263.5566     0.41813E+04 
  43295.8187     0.42194E+04 
  43328.0809     0.42579E+04 
  43360.3430     0.42968E+04 
  43392.6052     0.43363E+04 
  43424.8674     0.43763E+04 
  43457.1295     0.44168E+04 
  43489.3917     0.44578E+04 
  43521.6538     0.44993E+04 
  43553.9160     0.45413E+04 
  43586.1782     0.45839E+04 
  43618.4403     0.46271E+04 
  43650.7025     0.46708E+04 
  43682.9646     0.47150E+04 
  43715.2268     0.47599E+04 
  43747.4890     0.48053E+04 
  43779.7511     0.48514E+04 
  43812.0133     0.48980E+04 
  43844.2754     0.49453E+04 
  43876.5376     0.49932E+04 
  43908.7998     0.50417E+04 
  43941.0619     0.50909E+04 
  43973.3241     0.51408E+04 
  44005.5862     0.51913E+04 
  44037.8484     0.52425E+04 
  44070.1106     0.52944E+04 
  44102.3727     0.53471E+04 
  44134.6349     0.54004E+04 
  44166.8970     0.54545E+04 
  44199.1592     0.55094E+04 
  44231.4214     0.55650E+04 
  44263.6835     0.56214E+04 
  44295.9457     0.56785E+04 
  44328.2078     0.57365E+04 
  44360.4700     0.57953E+04 
  44392.7322     0.58550E+04 
  44424.9943     0.59155E+04 
  44457.2565     0.59768E+04 
  44489.5186     0.60391E+04 
  44521.7808     0.61023E+04 
  44554.0430     0.61663E+04 
  44586.3051     0.62313E+04 
  44618.5673     0.62973E+04 
  44650.8294     0.63642E+04 
  44683.0916     0.64322E+04 
  44715.3538     0.65011E+04 
  44747.6159     0.65711E+04 
  44779.8781     0.66421E+04 
  44812.1402     0.67142E+04 
  44844.4024     0.67874E+04 
  44876.6646     0.68617E+04 
  44908.9267     0.69371E+04 
  44941.1889     0.70137E+04 
  44973.4510     0.70915E+04 
  45005.7132     0.71705E+04 
  45037.9754     0.72507E+04 
  45070.2375     0.73322E+04 
  45102.4997     0.74150E+04 
  45134.7618     0.74990E+04 
  45167.0240     0.75844E+04 
  45199.2862     0.76712E+04 
  45231.5483     0.77594E+04 
  45263.8105     0.78490E+04 
  45296.0726     0.79400E+04 
  45328.3348     0.80325E+04 
  45360.5970     0.81266E+04 
  45392.8591     0.82222E+04 
  45425.1213     0.83194E+04 
  45457.3834     0.84182E+04 
  45489.6456     0.85186E+04 
  45521.9078     0.86207E+04 
  45554.1699     0.87246E+04 
  45586.4321     0.88303E+04 
  45618.6942     0.89377E+04 
  45650.9564     0.90470E+04 
  45683.2186     0.91582E+04 
  45715.4807     0.92713E+04 
  45747.7429     0.93864E+04 
  45780.0050     0.95035E+04 
  45812.2672     0.96227E+04 
  45844.5294     0.97440E+04 
  45876.7915     0.98675E+04 
  45909.0537     0.99932E+04 
  45941.3158     0.10121E+05 
  45973.5780     0.10251E+05 
  46005.8402     0.10384E+05 
  46038.1023     0.10519E+05 
  46070.3645     0.10657E+05 
  46102.6266     0.10797E+05 
  46134.8888     0.10940E+05 
  46167.1510     0.11086E+05 
  46199.4131     0.11234E+05 
  46231.6753     0.11385E+05 
  46263.9374     0.11539E+05 
  46296.1996     0.11696E+05 
  46328.4618     0.11856E+05 
  46360.7239     0.12019E+05 
  46392.9861     0.12186E+05 
  46425.2482     0.12356E+05 
  46457.5104     0.12529E+05 
  46489.7726     0.12705E+05 
  46522.0347     0.12886E+05 
  46554.2969     0.13069E+05 
  46586.5590     0.13257E+05 
  46618.8212     0.13449E+05 
  46651.0834     0.13644E+05 
  46683.3455     0.13844E+05 
  46715.6077     0.14048E+05 
  46747.8698     0.14256E+05 
  46780.1320     0.14469E+05 
  46812.3942     0.14686E+05 
  46844.6563     0.14908E+05 
  46876.9185     0.15135E+05 
  46909.1806     0.15367E+05 
  46941.4428     0.15604E+05 
  46973.7050     0.15846E+05 
  47005.9671     0.16094E+05 
  47038.2293     0.16348E+05 
  47070.4914     0.16607E+05 
  47102.7536     0.16873E+05 
  47135.0158     0.17144E+05 
  47167.2779     0.17422E+05 
  47199.5401     0.17707E+05 
  47231.8022     0.17998E+05 
  47264.0644     0.18297E+05 
  47296.3266     0.18602E+05 
  47328.5887     0.18916E+05 
  47360.8509     0.19237E+05 
  47393.1130     0.19566E+05 
  47425.3752     0.19903E+05 
  47457.6374     0.20249E+05 
  47489.8995     0.20604E+05 
  47522.1617     0.20968E+05 
  47554.4238     0.21341E+05 
  47586.6860     0.21725E+05 
  47618.9482     0.22119E+05 
  47651.2103     0.22523E+05 
  47683.4725     0.22938E+05 
  47715.7346     0.23365E+05 
  47747.9968     0.23804E+05 
  47780.2590     0.24255E+05 
  47812.5211     0.24718E+05 
  47844.7833     0.25195E+05 
  47877.0454     0.25686E+05 
  47909.3076     0.26191E+05 
  47941.5698     0.26712E+05 
  47973.8319     0.27247E+05 
  48006.0941     0.27799E+05 
  48038.3562     0.28368E+05 
  48070.6184     0.28955E+05 
  48102.8806     0.29560E+05 
  48135.1427     0.30184E+05 
  48167.4049     0.30828E+05 
  48199.6670     0.31493E+05 
  48231.9292     0.32181E+05 
  48264.1914     0.32891E+05 
  48296.4535     0.33625E+05 
  48328.7157     0.34384E+05 
  48360.9778     0.35170E+05 
  48393.2400     0.35983E+05 
  48425.5022     0.36825E+05 
  48457.7643     0.37698E+05 
  48490.0265     0.38603E+05 
  48522.2886     0.39542E+05 
  48554.5508     0.40516E+05 
  48586.8130     0.41527E+05 
  48619.0751     0.42578E+05 
  48651.3373     0.43671E+05 
  48683.5994     0.44807E+05 
  48715.8616     0.45990E+05 
  48748.1238     0.47223E+05 
  48780.3859     0.48507E+05 
  48812.6481     0.49846E+05 
  48844.9102     0.51245E+05 
  48877.1724     0.52705E+05 
  48909.4346     0.54232E+05 
  48941.6967     0.55829E+05 
  48973.9589     0.57502E+05 
  49006.2210     0.59254E+05 
  49038.4832     0.61093E+05 
  49070.7454     0.63023E+05 
  49103.0075     0.65051E+05 
  49135.2697     0.67185E+05 
  49167.5318     0.69432E+05 
  49199.7940     0.71800E+05 
  49232.0562     0.74299E+05 
  49264.3183     0.76940E+05 
  49296.5805     0.79733E+05 
  49328.8426     0.82690E+05 
  49361.1048     0.85826E+05 
  49393.3670     0.89155E+05 
  49425.6291     0.92692E+05 
  49457.8913     0.96457E+05 
  49490.1534     0.10047E+06 
  49522.4156     0.10475E+06 
  49554.6778     0.10931E+06 
  49586.9399     0.11420E+06 
  49619.2021     0.11942E+06 
  49651.4642     0.12501E+06 
  49683.7264     0.13100E+06 
  49715.9886     0.13740E+06 
  49748.2507     0.14426E+06 
  49780.5129     0.15157E+06 
  49812.7750     0.15936E+06 
  49845.0372     0.16761E+06 
  49877.2994     0.17631E+06 
  49909.5615     0.18537E+06 
  49941.8237     0.19471E+06 
  49974.0858     0.20413E+06 
  50006.3480     0.21340E+06 
  50038.6102     0.22217E+06 
  50070.8723     0.23003E+06 
  50103.1345     0.23648E+06 
  50135.3966     0.24106E+06 
  50167.6588     0.24336E+06 
  50199.9210     0.24322E+06 
  50232.1831     0.24072E+06 
  50264.4453     0.23632E+06 
  50296.7074     0.23070E+06 
  50328.9696     0.22472E+06 
  50361.2318     0.21918E+06 
  50393.4939     0.21470E+06 
  50425.7561     0.21164E+06 
  50458.0182     0.21010E+06 
  50490.2804     0.20991E+06 
  50522.5426     0.21073E+06 
  50554.8047     0.21214E+06 
  50587.0669     0.21370E+06 
  50619.3290     0.21511E+06 
  50651.5912     0.21622E+06 
  50683.8534     0.21706E+06 
  50716.1155     0.21783E+06 
  50748.3777     0.21880E+06 
  50780.6398     0.22021E+06 
  50812.9020     0.22221E+06 
  50845.1642     0.22479E+06 
  50877.4263     0.22778E+06 
  50909.6885     0.23086E+06 
  50941.9506     0.23365E+06 
  50974.2128     0.23581E+06 
  51006.4750     0.23711E+06 
  51038.7371     0.23750E+06 
  51070.9993     0.23711E+06 
  51103.2614     0.23625E+06 
  51135.5236     0.23530E+06 
  51167.7858     0.23465E+06 
  51200.0479     0.23459E+06 
  51232.3101     0.23536E+06 
  51264.5722     0.23703E+06 
  51296.8344     0.23959E+06 
  51329.0966     0.24289E+06 
  51361.3587     0.24676E+06 
  51393.6209     0.25097E+06 
  51425.8830     0.25537E+06 
  51458.1452     0.25989E+06 
  51490.4074     0.26459E+06 
  51522.6695     0.26962E+06 
  51554.9317     0.27520E+06 
  51587.1938     0.28151E+06 
  51619.4560     0.28866E+06 
  51651.7182     0.29657E+06 
  51683.9803     0.30496E+06 
  51716.2425     0.31340E+06 
  51748.5046     0.32138E+06 
  51780.7668     0.32839E+06 
  51813.0290     0.33410E+06 
  51845.2911     0.33835E+06 
  51877.5533     0.34118E+06 
  51909.8154     0.34275E+06 
  51942.0776     0.34326E+06 
  51974.3398     0.34291E+06 
  52006.6019     0.34189E+06 
  52038.8641     0.34037E+06 
  52071.1262     0.33853E+06 
  52103.3884     0.33651E+06 
  52135.6506     0.33441E+06 
  52167.9127     0.33229E+06 
  52200.1749     0.33019E+06 
  52232.4370     0.32815E+06 
  52264.6992     0.32625E+06 
  52296.9614     0.32457E+06 
  52329.2235     0.32322E+06 
  52361.4857     0.32228E+06 
  52393.7478     0.32178E+06 
  52426.0100     0.32169E+06 
  52458.2722     0.32194E+06 
  52490.5343     0.32242E+06 
  52522.7965     0.32298E+06 
  52555.0586     0.32350E+06 
  52587.3208     0.32387E+06 
  52619.5830     0.32401E+06 
  52651.8451     0.32388E+06 
  52684.1073     0.32348E+06 
  52716.3694     0.32276E+06 
  52748.6316     0.32168E+06 
  52780.8938     0.32021E+06 
  52813.1559     0.31834E+06 
  52845.4181     0.31607E+06 
  52877.6802     0.31344E+06 
  52909.9424     0.31049E+06 
  52942.2046     0.30725E+06 
  52974.4667     0.30374E+06 
  53006.7289     0.30002E+06 
  53038.9910     0.29617E+06 
  53071.2532     0.29236E+06 
  53103.5154     0.28880E+06 
  53135.7775     0.28571E+06 
  53168.0397     0.28331E+06 
  53200.3018     0.28172E+06 
  53232.5640     0.28100E+06 
  53264.8262     0.28106E+06 
  53297.0883     0.28177E+06 
  53329.3505     0.28292E+06 
  53361.6126     0.28433E+06 
  53393.8748     0.28585E+06 
  53426.1370     0.28737E+06 
  53458.3991     0.28881E+06 
  53490.6613     0.29012E+06 
  53522.9234     0.29125E+06 
  53555.1856     0.29214E+06 
  53587.4478     0.29276E+06 
  53619.7099     0.29310E+06 
  53651.9721     0.29318E+06 
  53684.2342     0.29300E+06 
  53716.4964     0.29254E+06 
  53748.7586     0.29178E+06 
  53781.0207     0.29071E+06 
  53813.2829     0.28931E+06 
  53845.5450     0.28764E+06 
  53877.8072     0.28577E+06 
  53910.0694     0.28381E+06 
  53942.3315     0.28186E+06 
  53974.5937     0.28004E+06 
  54006.8558     0.27842E+06 
  54039.1180     0.27708E+06 
  54071.3802     0.27603E+06 
  54103.6423     0.27528E+06 
  54135.9045     0.27480E+06 
  54168.1666     0.27455E+06 
  54200.4288     0.27445E+06 
  54232.6910     0.27445E+06 
  54264.9531     0.27446E+06 
  54297.2153     0.27438E+06 
  54329.4774     0.27416E+06 
  54361.7396     0.27373E+06 
  54394.0018     0.27307E+06 
  54426.2639     0.27217E+06 
  54458.5261     0.27100E+06 
  54490.7882     0.26952E+06 
  54523.0504     0.26770E+06 
  54555.3126     0.26548E+06 
  54587.5747     0.26283E+06 
  54619.8369     0.25976E+06 
  54652.0990     0.25631E+06 
  54684.3612     0.25260E+06 
  54716.6234     0.24874E+06 
  54748.8855     0.24487E+06 
  54781.1477     0.24110E+06 
  54813.4098     0.23754E+06 
  54845.6720     0.23424E+06 
  54877.9342     0.23124E+06 
  54910.1963     0.22856E+06 
  54942.4585     0.22619E+06 
  54974.7206     0.22413E+06 
  55006.9828     0.22234E+06 
  55039.2450     0.22079E+06 
  55071.5071     0.21942E+06 
  55103.7693     0.21818E+06 
  55136.0314     0.21704E+06 
  55168.2936     0.21598E+06 
  55200.5558     0.21497E+06 
  55232.8179     0.21401E+06 
  55265.0801     0.21305E+06 
  55297.3422     0.21206E+06 
  55329.6044     0.21099E+06 
  55361.8666     0.20980E+06 
  55394.1287     0.20846E+06 
  55426.3909     0.20697E+06 
  55458.6530     0.20533E+06 
  55490.9152     0.20360E+06 
  55523.1774     0.20183E+06 
  55555.4395     0.20008E+06 
  55587.7017     0.19840E+06 
  55619.9638     0.19686E+06 
  55652.2260     0.19548E+06 
  55684.4882     0.19429E+06 
  55716.7503     0.19329E+06 
  55749.0125     0.19247E+06 
  55781.2746     0.19180E+06 
  55813.5368     0.19124E+06 
  55845.7990     0.19075E+06 
  55878.0611     0.19031E+06 
  55910.3233     0.18988E+06 
  55942.5854     0.18946E+06 
  55974.8476     0.18901E+06 
  56007.1098     0.18852E+06 
  56039.3719     0.18795E+06 
  56071.6341     0.18726E+06 
  56103.8962     0.18638E+06 
  56136.1584     0.18527E+06 
  56168.4206     0.18391E+06 
  56200.6827     0.18229E+06 
  56232.9449     0.18044E+06 
  56265.2070     0.17840E+06 
  56297.4692     0.17623E+06 
  56329.7314     0.17401E+06 
  56361.9935     0.17177E+06 
  56394.2557     0.16957E+06 
  56426.5178     0.16743E+06 
  56458.7800     0.16539E+06 
  56491.0422     0.16343E+06 
  56523.3043     0.16157E+06 
  56555.5665     0.15979E+06 
  56587.8286     0.15807E+06 
  56620.0908     0.15641E+06 
  56652.3530     0.15482E+06 
  56684.6151     0.15328E+06 
  56716.8773     0.15182E+06 
  56749.1394     0.15044E+06 
  56781.4016     0.14914E+06 
  56813.6638     0.14791E+06 
  56845.9259     0.14671E+06 
  56878.1881     0.14553E+06 
  56910.4502     0.14432E+06 
  56942.7124     0.14307E+06 
  56974.9746     0.14176E+06 
  57007.2367     0.14040E+06 
  57039.4989     0.13900E+06 
  57071.7610     0.13759E+06 
  57104.0232     0.13620E+06 
  57136.2854     0.13486E+06 
  57168.5475     0.13359E+06 
  57200.8097     0.13240E+06 
  57233.0718     0.13131E+06 
  57265.3340     0.13031E+06 
  57297.5962     0.12939E+06 
  57329.8583     0.12853E+06 
  57362.1205     0.12772E+06 
  57394.3826     0.12694E+06 
  57426.6448     0.12620E+06 
  57458.9070     0.12549E+06 
  57491.1691     0.12481E+06 
  57523.4313     0.12415E+06 
  57555.6934     0.12351E+06 
  57587.9556     0.12287E+06 
  57620.2178     0.12220E+06 
  57652.4799     0.12148E+06 
  57684.7421     0.12068E+06 
  57717.0042     0.11980E+06 
  57749.2664     0.11884E+06 
  57781.5286     0.11779E+06 
  57813.7907     0.11668E+06 
  57846.0529     0.11553E+06 
  57878.3150     0.11436E+06 
  57910.5772     0.11318E+06 
  57942.8394     0.11201E+06 
  57975.1015     0.11085E+06 
  58007.3637     0.10971E+06 
  58039.6258     0.10858E+06 
  58071.8880     0.10746E+06 
  58104.1502     0.10634E+06 
  58136.4123     0.10524E+06 
  58168.6745     0.10414E+06 
  58200.9366     0.10306E+06 
  58233.1988     0.10200E+06 
  58265.4610     0.10097E+06 
  58297.7231     0.99981E+05 
  58329.9853     0.99022E+05 
  58362.2474     0.98089E+05 
  58394.5096     0.97170E+05 
  58426.7718     0.96254E+05 
  58459.0339     0.95330E+05 
  58491.2961     0.94393E+05 
  58523.5582     0.93442E+05 
  58555.8204     0.92482E+05 
  58588.0826     0.91523E+05 
  58620.3447     0.90574E+05 
  58652.6069     0.89646E+05 
  58684.8690     0.88746E+05 
  58717.1312     0.87880E+05 
  58749.3934     0.87048E+05 
  58781.6555     0.86248E+05 
  58813.9177     0.85477E+05 
  58846.1798     0.84729E+05 
  58878.4420     0.84002E+05 
  58910.7042     0.83293E+05 
  58942.9663     0.82601E+05 
  58975.2285     0.81928E+05 
  59007.4906     0.81274E+05 
  59039.7528     0.80641E+05 
  59072.0150     0.80024E+05 
  59104.2771     0.79420E+05 
  59136.5393     0.78821E+05 
  59168.8014     0.78219E+05 
  59201.0636     0.77606E+05 
  59233.3258     0.76976E+05 
  59265.5879     0.76328E+05 
  59297.8501     0.75663E+05 
  59330.1122     0.74984E+05 
  59362.3744     0.74295E+05 
  59394.6366     0.73603E+05 
  59426.8987     0.72910E+05 
  59459.1609     0.72221E+05 
  59491.4230     0.71535E+05 
  59523.6852     0.70853E+05 
  59555.9474     0.70174E+05 
  59588.2095     0.69497E+05 
  59620.4717     0.68821E+05 
  59652.7338     0.68148E+05 
  59684.9960     0.67478E+05 
  59717.2582     0.66814E+05 
  59749.5203     0.66159E+05 
  59781.7825     0.65515E+05 
  59814.0446     0.64883E+05 
  59846.3068     0.64263E+05 
  59878.5690     0.63653E+05 
  59910.8311     0.63051E+05 
  59943.0933     0.62453E+05 
  59975.3554     0.61857E+05 
  60007.6176     0.61261E+05 
  60039.8798     0.60666E+05 
  60072.1419     0.60072E+05 
  60104.4041     0.59482E+05 
  60136.6662     0.58899E+05 
  60168.9284     0.58325E+05 
  60201.1906     0.57761E+05 
  60233.4527     0.57209E+05 
  60265.7149     0.56668E+05 
  60297.9770     0.56138E+05 
  60330.2392     0.55619E+05 
  60362.5014     0.55108E+05 
  60394.7635     0.54606E+05 
  60427.0257     0.54113E+05 
  60459.2878     0.53628E+05 
  60491.5500     0.53152E+05 
  60523.8122     0.52687E+05 
  60556.0743     0.52231E+05 
  60588.3365     0.51784E+05 
  60620.5986     0.51346E+05 
  60652.8608     0.50913E+05 
  60685.1230     0.50485E+05 
  60717.3851     0.50059E+05 
  60749.6473     0.49634E+05 
  60781.9094     0.49209E+05 
  60814.1716     0.48784E+05 
  60846.4338     0.48360E+05 
  60878.6959     0.47937E+05 
  60910.9581     0.47517E+05 
  60943.2202     0.47100E+05 
  60975.4824     0.46686E+05 
  61007.7446     0.46275E+05 
  61040.0067     0.45867E+05 
  61072.2689     0.45462E+05 
  61104.5310     0.45060E+05 
  61136.7932     0.44661E+05 
  61169.0554     0.44264E+05 
  61201.3175     0.43871E+05 
  61233.5797     0.43482E+05 
  61265.8418     0.43097E+05 
  61298.1040     0.42717E+05 
  61330.3662     0.42343E+05 
  61362.6283     0.41974E+05 
  61394.8905     0.41610E+05 
  61427.1526     0.41250E+05 
  61459.4148     0.40894E+05 
  61491.6770     0.40540E+05 
  61523.9391     0.40190E+05 
  61556.2013     0.39843E+05 
  61588.4634     0.39500E+05 
  61620.7256     0.39160E+05 
  61652.9878     0.38824E+05 
  61685.2499     0.38493E+05 
  61717.5121     0.38167E+05 
  61749.7742     0.37845E+05 
  61782.0364     0.37528E+05 
  61814.2986     0.37215E+05 
  61846.5607     0.36907E+05 
  61878.8229     0.36603E+05 
  61911.0850     0.36304E+05 
  61943.3472     0.36008E+05 
  61975.6094     0.35717E+05 
  62007.8715     0.35431E+05 
  62040.1337     0.35149E+05 
  62072.3958     0.34872E+05 
  62104.6580     0.34600E+05 
  62136.9202     0.34331E+05 
  62169.1823     0.34066E+05 
  62201.4445     0.33805E+05 
  62233.7066     0.33547E+05 
  62265.9688     0.33291E+05 
  62298.2310     0.33039E+05 
  62330.4931     0.32788E+05 
  62362.7553     0.32541E+05 
  62395.0174     0.32296E+05 
  62427.2796     0.32054E+05 
  62459.5418     0.31814E+05 
  62491.8039     0.31577E+05 
  62524.0661     0.31343E+05 
  62556.3282     0.31111E+05 
  62588.5904     0.30882E+05 
  62620.8526     0.30655E+05 
  62653.1147     0.30431E+05 
  62685.3769     0.30209E+05 
  62717.6390     0.29989E+05 
  62749.9012     0.29773E+05 
  62782.1634     0.29558E+05 
  62814.4255     0.29347E+05 
  62846.6877     0.29139E+05 
  62878.9498     0.28933E+05 
  62911.2120     0.28729E+05 
  62943.4742     0.28529E+05 
  62975.7363     0.28330E+05 
  63007.9985     0.28135E+05 
  63040.2606     0.27941E+05 
  63072.5228     0.27750E+05 
  63104.7850     0.27561E+05 
  63137.0471     0.27375E+05 
  63169.3093     0.27191E+05 
  63201.5714     0.27010E+05 
  63233.8336     0.26831E+05 
  63266.0958     0.26654E+05 
  63298.3579     0.26480E+05 
  63330.6201     0.26309E+05 
  63362.8822     0.26139E+05 
  63395.1444     0.25972E+05 
  63427.4066     0.25807E+05 
  63459.6687     0.25644E+05 
  63491.9309     0.25484E+05 
  63524.1930     0.25326E+05 
  63556.4552     0.25170E+05 
  63588.7174     0.25017E+05 
  63620.9795     0.24866E+05 
  63653.2417     0.24717E+05 
  63685.5038     0.24570E+05 
  63717.7660     0.24424E+05 
  63750.0282     0.24281E+05 
  63782.2903     0.24140E+05 
  63814.5525     0.24001E+05 
  63846.8146     0.23863E+05 
  63879.0768     0.23727E+05 
  63911.3390     0.23594E+05 
  63943.6011     0.23461E+05 
  63975.8633     0.23331E+05 
  64008.1254     0.23202E+05 
  64040.3876     0.23075E+05 
  64072.6498     0.22950E+05 
  64104.9119     0.22826E+05 
  64137.1741     0.22703E+05 
  64169.4362     0.22583E+05 
  64201.6984     0.22463E+05 
  64233.9606     0.22346E+05 
  64266.2227     0.22230E+05 
  64298.4849     0.22115E+05 
  64330.7470     0.22002E+05 
  64363.0092     0.21890E+05 
  64395.2714     0.21780E+05 
  64427.5335     0.21672E+05 
  64459.7957     0.21564E+05 
  64492.0578     0.21459E+05 
  64524.3200     0.21354E+05 
  64556.5822     0.21251E+05 
  64588.8443     0.21150E+05 
  64621.1065     0.21050E+05 
  64653.3686     0.20951E+05 
  64685.6308     0.20853E+05 
  64717.8930     0.20757E+05 
  64750.1551     0.20662E+05 
  64782.4173     0.20569E+05 
  64814.6794     0.20476E+05 
  64846.9416     0.20385E+05 
  64879.2038     0.20296E+05 
  64911.4659     0.20207E+05 
  64943.7281     0.20120E+05 
  64975.9902     0.20034E+05 
  65008.2524     0.19949E+05 
  65040.5146     0.19865E+05 
  65072.7767     0.19782E+05 
  65105.0389     0.19701E+05 
  65137.3010     0.19621E+05 
  65169.5632     0.19542E+05 
  65201.8254     0.19464E+05 
  65234.0875     0.19387E+05 
  65266.3497     0.19311E+05 
  65298.6118     0.19236E+05 
  65330.8740     0.19162E+05 
  65363.1362     0.19089E+05 
  65395.3983     0.19017E+05 
  65427.6605     0.18947E+05 
  65459.9226     0.18877E+05 
  65492.1848     0.18808E+05 
  65524.4470     0.18740E+05 
  65556.7091     0.18673E+05 
  65588.9713     0.18607E+05 
  65621.2334     0.18542E+05 
  65653.4956     0.18478E+05 
  65685.7578     0.18414E+05 
  65718.0199     0.18352E+05 
  65750.2821     0.18290E+05 
  65782.5442     0.18229E+05 
  65814.8064     0.18170E+05 
  65847.0686     0.18110E+05 
  65879.3307     0.18052E+05 
  65911.5929     0.17995E+05 
  65943.8550     0.17938E+05 
  65976.1172     0.17882E+05 
  66008.3794     0.17827E+05 
  66040.6415     0.17773E+05 
  66072.9037     0.17719E+05 
  66105.1658     0.17666E+05 
  66137.4280     0.17614E+05 
  66169.6902     0.17563E+05 
  66201.9523     0.17512E+05 
  66234.2145     0.17462E+05 
  66266.4766     0.17413E+05 
  66298.7388     0.17365E+05 
  66331.0010     0.17317E+05 
  66363.2631     0.17270E+05 
  66395.5253     0.17223E+05 
  66427.7874     0.17178E+05 
  66460.0496     0.17133E+05 
  66492.3118     0.17088E+05 
  66524.5739     0.17044E+05 
  66556.8361     0.17001E+05 
  66589.0982     0.16959E+05 
  66621.3604     0.16917E+05 
  66653.6226     0.16875E+05 
  66685.8847     0.16835E+05 
  66718.1469     0.16795E+05 
  66750.4090     0.16755E+05 
  66782.6712     0.16716E+05 
  66814.9334     0.16678E+05 
  66847.1955     0.16640E+05 
  66879.4577     0.16603E+05 
  66911.7198     0.16566E+05 
  66943.9820     0.16530E+05 
  66976.2442     0.16495E+05 
  67008.5063     0.16460E+05 
  67040.7685     0.16425E+05 
  67073.0306     0.16391E+05 
  67105.2928     0.16358E+05 
  67137.5550     0.16325E+05 
  67169.8171     0.16293E+05 
  67202.0793     0.16261E+05 
  67234.3414     0.16229E+05 
  67266.6036     0.16198E+05 
  67298.8658     0.16168E+05 
  67331.1279     0.16138E+05 
  67363.3901     0.16109E+05 
  67395.6522     0.16080E+05 
  67427.9144     0.16051E+05 
  67460.1766     0.16023E+05 
  67492.4387     0.15995E+05 
  67524.7009     0.15968E+05 
  67556.9630     0.15941E+05 
  67589.2252     0.15915E+05 
  67621.4874     0.15889E+05 
  67653.7495     0.15864E+05 
  67686.0117     0.15839E+05 
  67718.2738     0.15814E+05 
  67750.5360     0.15790E+05 
  67782.7982     0.15766E+05 
  67815.0603     0.15743E+05 
  67847.3225     0.15720E+05 
  67879.5846     0.15697E+05 
  67911.8468     0.15675E+05 
  67944.1090     0.15653E+05 
  67976.3711     0.15632E+05 
  68008.6333     0.15611E+05 
  68040.8954     0.15590E+05 
  68073.1576     0.15570E+05 
  68105.4198     0.15550E+05 
  68137.6819     0.15531E+05 
  68169.9441     0.15512E+05 
  68202.2062     0.15493E+05 
  68234.4684     0.15475E+05 
  68266.7306     0.15457E+05 
  68298.9927     0.15439E+05 
  68331.2549     0.15422E+05 
  68363.5170     0.15405E+05 
  68395.7792     0.15388E+05 
  68428.0414     0.15372E+05 
  68460.3035     0.15356E+05 
  68492.5657     0.15340E+05 
  68524.8278     0.15325E+05 
  68557.0900     0.15310E+05 
  68589.3522     0.15295E+05 
  68621.6143     0.15281E+05 
  68653.8765     0.15267E+05 
  68686.1386     0.15253E+05 
  68718.4008     0.15240E+05 
  68750.6630     0.15227E+05 
  68782.9251     0.15214E+05 
  68815.1873     0.15202E+05 
  68847.4494     0.15190E+05 
  68879.7116     0.15178E+05 
  68911.9738     0.15166E+05 
  68944.2359     0.15155E+05 
  68976.4981     0.15144E+05 
  69008.7602     0.15134E+05 
  69041.0224     0.15123E+05 
  69073.2846     0.15113E+05 
  69105.5467     0.15103E+05 
  69137.8089     0.15094E+05 
  69170.0710     0.15085E+05 
  69202.3332     0.15076E+05 
  69234.5954     0.15067E+05 
  69266.8575     0.15059E+05 
  69299.1197     0.15051E+05 
  69331.3818     0.15043E+05 
  69363.6440     0.15036E+05 
  69395.9062     0.15029E+05 
  69428.1683     0.15022E+05 
  69460.4305     0.15015E+05 
  69492.6926     0.15008E+05 
  69524.9548     0.15002E+05 
  69557.2170     0.14996E+05 
  69589.4791     0.14991E+05 
  69621.7413     0.14985E+05 
  69654.0034     0.14980E+05 
  69686.2656     0.14976E+05 
  69718.5278     0.14971E+05 
  69750.7899     0.14967E+05 
  69783.0521     0.14963E+05 
  69815.3142     0.14959E+05 
  69847.5764     0.14955E+05 
  69879.8386     0.14952E+05 
  69912.1007     0.14949E+05 
  69944.3629     0.14946E+05 
  69976.6250     0.14943E+05 
  70008.8872     0.14941E+05 
  70041.1494     0.14939E+05 
  70073.4115     0.14937E+05 
  70105.6737     0.14936E+05 
  70137.9358     0.14934E+05 
  70170.1980     0.14933E+05 
  70202.4602     0.14932E+05 
  70234.7223     0.14932E+05 
  70266.9845     0.14931E+05 
  70299.2466     0.14931E+05 
  70331.5088     0.14931E+05 
  70363.7710     0.14931E+05 
  70396.0331     0.14932E+05 
  70428.2953     0.14933E+05 
  70460.5574     0.14934E+05 
  70492.8196     0.14935E+05 
  70525.0818     0.14936E+05 
  70557.3439     0.14938E+05 
  70589.6061     0.14940E+05 
  70621.8682     0.14942E+05 
  70654.1304     0.14944E+05 
  70686.3926     0.14947E+05 
  70718.6547     0.14950E+05 
  70750.9169     0.14953E+05 
  70783.1790     0.14956E+05 
  70815.4412     0.14960E+05 
  70847.7034     0.14963E+05 
  70879.9655     0.14967E+05 
  70912.2277     0.14972E+05 
  70944.4898     0.14976E+05 
  70976.7520     0.14981E+05 
  71009.0142     0.14985E+05 
  71041.2763     0.14990E+05 
  71073.5385     0.14996E+05 
  71105.8006     0.15001E+05 
  71138.0628     0.15007E+05 
  71170.3250     0.15013E+05 
  71202.5871     0.15019E+05 
  71234.8493     0.15025E+05 
  71267.1114     0.15032E+05 
  71299.3736     0.15039E+05 
  71331.6358     0.15046E+05 
  71363.8979     0.15053E+05 
  71396.1601     0.15061E+05 
  71428.4222     0.15068E+05 
  71460.6844     0.15076E+05 
  71492.9466     0.15084E+05 
  71525.2087     0.15093E+05 
  71557.4709     0.15101E+05 
  71589.7330     0.15110E+05 
  71621.9952     0.15119E+05 
  71654.2574     0.15128E+05 
  71686.5195     0.15137E+05 
  71718.7817     0.15147E+05 
  71751.0438     0.15157E+05 
  71783.3060     0.15167E+05 
  71815.5682     0.15177E+05 
  71847.8303     0.15188E+05 
  71880.0925     0.15198E+05 
  71912.3546     0.15209E+05 
  71944.6168     0.15220E+05 
  71976.8790     0.15232E+05 
  72009.1411     0.15243E+05 
  72041.4033     0.15255E+05 
  72073.6654     0.15267E+05 
  72105.9276     0.15279E+05 
  72138.1898     0.15292E+05 
  72170.4519     0.15304E+05 
  72202.7141     0.15317E+05 
  72234.9762     0.15330E+05 
  72267.2384     0.15343E+05 
  72299.5006     0.15357E+05 
  72331.7627     0.15371E+05 
  72364.0249     0.15385E+05 
  72396.2870     0.15399E+05 
  72428.5492     0.15413E+05 
  72460.8114     0.15428E+05 
  72493.0735     0.15442E+05 
  72525.3357     0.15457E+05 
  72557.5978     0.15473E+05 
  72589.8600     0.15488E+05 
