  32262.1600     0.46792E+00 
  32302.4877     0.49040E+00 
  32342.8154     0.51358E+00 
  32383.1431     0.53748E+00 
  32423.4708     0.56210E+00 
  32463.7985     0.58746E+00 
  32504.1262     0.61358E+00 
  32544.4539     0.64047E+00 
  32584.7816     0.66814E+00 
  32625.1093     0.69661E+00 
  32665.4370     0.72589E+00 
  32705.7647     0.75600E+00 
  32746.0924     0.78696E+00 
  32786.4201     0.81877E+00 
  32826.7478     0.85147E+00 
  32867.0755     0.88506E+00 
  32907.4032     0.91956E+00 
  32947.7309     0.95498E+00 
  32988.0586     0.99136E+00 
  33028.3863     0.10287E+01 
  33068.7140     0.10670E+01 
  33109.0417     0.11063E+01 
  33149.3694     0.11467E+01 
  33189.6971     0.11881E+01 
  33230.0248     0.12305E+01 
  33270.3525     0.12741E+01 
  33310.6802     0.13187E+01 
  33351.0079     0.13645E+01 
  33391.3356     0.14114E+01 
  33431.6633     0.14594E+01 
  33471.9910     0.15087E+01 
  33512.3187     0.15592E+01 
  33552.6464     0.16109E+01 
  33592.9741     0.16639E+01 
  33633.3018     0.17182E+01 
  33673.6295     0.17737E+01 
  33713.9572     0.18307E+01 
  33754.2849     0.18889E+01 
  33794.6126     0.19486E+01 
  33834.9403     0.20097E+01 
  33875.2680     0.20723E+01 
  33915.5957     0.21363E+01 
  33955.9234     0.22018E+01 
  33996.2511     0.22689E+01 
  34036.5788     0.23375E+01 
  34076.9065     0.24078E+01 
  34117.2342     0.24796E+01 
  34157.5619     0.25531E+01 
  34197.8896     0.26283E+01 
  34238.2173     0.27053E+01 
  34278.5450     0.27840E+01 
  34318.8727     0.28645E+01 
  34359.2004     0.29469E+01 
  34399.5281     0.30311E+01 
  34439.8558     0.31172E+01 
  34480.1835     0.32053E+01 
  34520.5112     0.32953E+01 
  34560.8389     0.33874E+01 
  34601.1666     0.34816E+01 
  34641.4943     0.35779E+01 
  34681.8220     0.36763E+01 
  34722.1497     0.37770E+01 
  34762.4774     0.38798E+01 
  34802.8051     0.39850E+01 
  34843.1328     0.40925E+01 
  34883.4605     0.42024E+01 
  34923.7882     0.43147E+01 
  34964.1159     0.44296E+01 
  35004.4436     0.45469E+01 
  35044.7713     0.46669E+01 
  35085.0990     0.47894E+01 
  35125.4267     0.49147E+01 
  35165.7544     0.50428E+01 
  35206.0821     0.51736E+01 
  35246.4098     0.53073E+01 
  35286.7375     0.54440E+01 
  35327.0652     0.55836E+01 
  35367.3929     0.57263E+01 
  35407.7206     0.58721E+01 
  35448.0483     0.60211E+01 
  35488.3760     0.61734E+01 
  35528.7037     0.63289E+01 
  35569.0314     0.64879E+01 
  35609.3591     0.66503E+01 
  35649.6868     0.68163E+01 
  35690.0145     0.69858E+01 
  35730.3422     0.71591E+01 
  35770.6699     0.73361E+01 
  35810.9976     0.75170E+01 
  35851.3253     0.77018E+01 
  35891.6530     0.78906E+01 
  35931.9807     0.80835E+01 
  35972.3084     0.82806E+01 
  36012.6361     0.84820E+01 
  36052.9638     0.86878E+01 
  36093.2915     0.88980E+01 
  36133.6192     0.91128E+01 
  36173.9469     0.93322E+01 
  36214.2746     0.95565E+01 
  36254.6023     0.97856E+01 
  36294.9300     0.10020E+02 
  36335.2577     0.10259E+02 
  36375.5854     0.10503E+02 
  36415.9131     0.10753E+02 
  36456.2408     0.11008E+02 
  36496.5685     0.11269E+02 
  36536.8962     0.11535E+02 
  36577.2239     0.11807E+02 
  36617.5516     0.12085E+02 
  36657.8793     0.12369E+02 
  36698.2070     0.12660E+02 
  36738.5347     0.12956E+02 
  36778.8624     0.13259E+02 
  36819.1901     0.13569E+02 
  36859.5178     0.13886E+02 
  36899.8455     0.14209E+02 
  36940.1732     0.14540E+02 
  36980.5009     0.14878E+02 
  37020.8286     0.15223E+02 
  37061.1563     0.15576E+02 
  37101.4840     0.15937E+02 
  37141.8117     0.16305E+02 
  37182.1394     0.16682E+02 
  37222.4671     0.17067E+02 
  37262.7948     0.17460E+02 
  37303.1225     0.17862E+02 
  37343.4502     0.18274E+02 
  37383.7779     0.18694E+02 
  37424.1056     0.19123E+02 
  37464.4333     0.19562E+02 
  37504.7610     0.20011E+02 
  37545.0887     0.20470E+02 
  37585.4164     0.20939E+02 
  37625.7441     0.21419E+02 
  37666.0718     0.21909E+02 
  37706.3995     0.22410E+02 
  37746.7272     0.22923E+02 
  37787.0549     0.23447E+02 
  37827.3826     0.23983E+02 
  37867.7103     0.24531E+02 
  37908.0380     0.25091E+02 
  37948.3657     0.25664E+02 
  37988.6934     0.26250E+02 
  38029.0211     0.26849E+02 
  38069.3488     0.27462E+02 
  38109.6765     0.28089E+02 
  38150.0042     0.28730E+02 
  38190.3319     0.29386E+02 
  38230.6596     0.30057E+02 
  38270.9873     0.30743E+02 
  38311.3150     0.31445E+02 
  38351.6427     0.32163E+02 
  38391.9704     0.32898E+02 
  38432.2981     0.33649E+02 
  38472.6258     0.34418E+02 
  38512.9535     0.35205E+02 
  38553.2812     0.36011E+02 
  38593.6089     0.36835E+02 
  38633.9366     0.37678E+02 
  38674.2643     0.38541E+02 
  38714.5920     0.39424E+02 
  38754.9197     0.40328E+02 
  38795.2474     0.41253E+02 
  38835.5751     0.42201E+02 
  38875.9028     0.43170E+02 
  38916.2305     0.44163E+02 
  38956.5582     0.45179E+02 
  38996.8859     0.46220E+02 
  39037.2136     0.47285E+02 
  39077.5413     0.48376E+02 
  39117.8690     0.49493E+02 
  39158.1967     0.50637E+02 
  39198.5244     0.51809E+02 
  39238.8521     0.53009E+02 
  39279.1798     0.54238E+02 
  39319.5075     0.55498E+02 
  39359.8352     0.56787E+02 
  39400.1629     0.58109E+02 
  39440.4906     0.59463E+02 
  39480.8183     0.60850E+02 
  39521.1460     0.62272E+02 
  39561.4737     0.63728E+02 
  39601.8014     0.65221E+02 
  39642.1291     0.66751E+02 
  39682.4568     0.68319E+02 
  39722.7845     0.69927E+02 
  39763.1122     0.71575E+02 
  39803.4399     0.73264E+02 
  39843.7676     0.74997E+02 
  39884.0953     0.76773E+02 
  39924.4230     0.78594E+02 
  39964.7507     0.80462E+02 
  40005.0784     0.82378E+02 
  40045.4061     0.84343E+02 
  40085.7338     0.86358E+02 
  40126.0615     0.88426E+02 
  40166.3892     0.90547E+02 
  40206.7169     0.92724E+02 
  40247.0446     0.94957E+02 
  40287.3723     0.97249E+02 
  40327.7000     0.99602E+02 
  40368.0277     0.10202E+03 
  40408.3554     0.10449E+03 
  40448.6831     0.10704E+03 
  40489.0108     0.10965E+03 
  40529.3385     0.11233E+03 
  40569.6662     0.11509E+03 
  40609.9939     0.11792E+03 
  40650.3216     0.12082E+03 
  40690.6493     0.12381E+03 
  40730.9770     0.12687E+03 
  40771.3047     0.13003E+03 
  40811.6324     0.13326E+03 
  40851.9601     0.13659E+03 
  40892.2878     0.14001E+03 
  40932.6155     0.14352E+03 
  40972.9432     0.14714E+03 
  41013.2709     0.15085E+03 
  41053.5986     0.15467E+03 
  41093.9263     0.15860E+03 
  41134.2540     0.16264E+03 
  41174.5817     0.16679E+03 
  41214.9094     0.17106E+03 
  41255.2371     0.17546E+03 
  41295.5648     0.17999E+03 
  41335.8925     0.18464E+03 
  41376.2202     0.18944E+03 
  41416.5479     0.19437E+03 
  41456.8756     0.19945E+03 
  41497.2033     0.20468E+03 
  41537.5310     0.21007E+03 
  41577.8587     0.21562E+03 
  41618.1864     0.22133E+03 
  41658.5141     0.22722E+03 
  41698.8418     0.23329E+03 
  41739.1695     0.23954E+03 
  41779.4972     0.24599E+03 
  41819.8249     0.25263E+03 
  41860.1526     0.25948E+03 
  41900.4803     0.26655E+03 
  41940.8080     0.27383E+03 
  41981.1357     0.28135E+03 
  42021.4634     0.28910E+03 
  42061.7911     0.29711E+03 
  42102.1188     0.30536E+03 
  42142.4465     0.31389E+03 
  42182.7742     0.32269E+03 
  42223.1019     0.33178E+03 
  42263.4296     0.34117E+03 
  42303.7573     0.35087E+03 
  42344.0850     0.36089E+03 
  42384.4127     0.37125E+03 
  42424.7404     0.38196E+03 
  42465.0681     0.39303E+03 
  42505.3958     0.40447E+03 
  42545.7235     0.41631E+03 
  42586.0512     0.42856E+03 
  42626.3789     0.44123E+03 
  42666.7066     0.45435E+03 
  42707.0343     0.46793E+03 
  42747.3620     0.48199E+03 
  42787.6897     0.49655E+03 
  42828.0174     0.51164E+03 
  42868.3451     0.52728E+03 
  42908.6728     0.54348E+03 
  42949.0005     0.56028E+03 
  42989.3282     0.57771E+03 
  43029.6559     0.59578E+03 
  43069.9836     0.61454E+03 
  43110.3113     0.63400E+03 
  43150.6390     0.65421E+03 
  43190.9667     0.67520E+03 
  43231.2944     0.69700E+03 
  43271.6221     0.71965E+03 
  43311.9498     0.74320E+03 
  43352.2775     0.76769E+03 
  43392.6052     0.79315E+03 
  43432.9329     0.81965E+03 
  43473.2606     0.84724E+03 
  43513.5883     0.87596E+03 
  43553.9160     0.90587E+03 
  43594.2437     0.93704E+03 
  43634.5714     0.96953E+03 
  43674.8991     0.10034E+04 
  43715.2268     0.10388E+04 
  43755.5545     0.10757E+04 
  43795.8822     0.11142E+04 
  43836.2099     0.11544E+04 
  43876.5376     0.11964E+04 
  43916.8653     0.12404E+04 
  43957.1930     0.12864E+04 
  43997.5207     0.13345E+04 
  44037.8484     0.13849E+04 
  44078.1761     0.14376E+04 
  44118.5038     0.14929E+04 
  44158.8315     0.15509E+04 
  44199.1592     0.16118E+04 
  44239.4869     0.16757E+04 
  44279.8146     0.17428E+04 
  44320.1423     0.18134E+04 
  44360.4700     0.18876E+04 
  44400.7977     0.19657E+04 
  44441.1254     0.20480E+04 
  44481.4531     0.21347E+04 
  44521.7808     0.22262E+04 
  44562.1085     0.23228E+04 
  44602.4362     0.24248E+04 
  44642.7639     0.25327E+04 
  44683.0916     0.26469E+04 
  44723.4193     0.27678E+04 
  44763.7470     0.28960E+04 
  44804.0747     0.30320E+04 
  44844.4024     0.31766E+04 
  44884.7301     0.33303E+04 
  44925.0578     0.34939E+04 
  44965.3855     0.36683E+04 
  45005.7132     0.38543E+04 
  45046.0409     0.40531E+04 
  45086.3686     0.42658E+04 
  45126.6963     0.44937E+04 
  45167.0240     0.47381E+04 
  45207.3517     0.50008E+04 
  45247.6794     0.52834E+04 
  45288.0071     0.55880E+04 
  45328.3348     0.59169E+04 
  45368.6625     0.62727E+04 
  45408.9902     0.66582E+04 
  45449.3179     0.70768E+04 
  45489.6456     0.75323E+04 
  45529.9733     0.80287E+04 
  45570.3010     0.85711E+04 
  45610.6287     0.91650E+04 
  45650.9564     0.98165E+04 
  45691.2841     0.10533E+05 
  45731.6118     0.11322E+05 
  45771.9395     0.12192E+05 
  45812.2672     0.13154E+05 
  45852.5949     0.14218E+05 
  45892.9226     0.15394E+05 
  45933.2503     0.16691E+05 
  45973.5780     0.18119E+05 
  46013.9057     0.19680E+05 
  46054.2334     0.21368E+05 
  46094.5611     0.23164E+05 
  46134.8888     0.25026E+05 
  46175.2165     0.26883E+05 
  46215.5442     0.28625E+05 
  46255.8719     0.30113E+05 
  46296.1996     0.31188E+05 
  46336.5273     0.31718E+05 
  46376.8550     0.31641E+05 
  46417.1827     0.31011E+05 
  46457.5104     0.29996E+05 
  46497.8381     0.28833E+05 
  46538.1658     0.27767E+05 
  46578.4935     0.26983E+05 
  46618.8212     0.26588E+05 
  46659.1489     0.26601E+05 
  46699.4766     0.26977E+05 
  46739.8043     0.27631E+05 
  46780.1320     0.28468E+05 
  46820.4597     0.29410E+05 
  46860.7874     0.30426E+05 
  46901.1151     0.31528E+05 
  46941.4428     0.32749E+05 
  46981.7705     0.34111E+05 
  47022.0982     0.35586E+05 
  47062.4259     0.37081E+05 
  47102.7536     0.38455E+05 
  47143.0813     0.39554E+05 
  47183.4090     0.40271E+05 
  47223.7367     0.40590E+05 
  47264.0644     0.40595E+05 
  47304.3921     0.40447E+05 
  47344.7198     0.40326E+05 
  47385.0475     0.40390E+05 
  47425.3752     0.40743E+05 
  47465.7029     0.41423E+05 
  47506.0306     0.42408E+05 
  47546.3583     0.43629E+05 
  47586.6860     0.44997E+05 
  47627.0137     0.46448E+05 
  47667.3414     0.47981E+05 
  47707.6691     0.49684E+05 
  47747.9968     0.51707E+05 
  47788.3245     0.54193E+05 
  47828.6522     0.57185E+05 
  47868.9799     0.60559E+05 
  47909.3076     0.64011E+05 
  47949.6353     0.67143E+05 
  47989.9630     0.69590E+05 
  48030.2907     0.71139E+05 
  48070.6184     0.71777E+05 
  48110.9461     0.71653E+05 
  48151.2738     0.71019E+05 
  48191.6015     0.70170E+05 
  48231.9292     0.69385E+05 
  48272.2569     0.68879E+05 
  48312.5846     0.68754E+05 
  48352.9123     0.68986E+05 
  48393.2400     0.69451E+05 
  48433.5677     0.70007E+05 
  48473.8954     0.70572E+05 
  48514.2231     0.71168E+05 
  48554.5508     0.71917E+05 
  48594.8785     0.72975E+05 
  48635.2062     0.74453E+05 
  48675.5339     0.76347E+05 
  48715.8616     0.78518E+05 
  48756.1893     0.80724E+05 
  48796.5170     0.82705E+05 
  48836.8447     0.84256E+05 
  48877.1724     0.85265E+05 
  48917.5001     0.85715E+05 
  48957.8278     0.85666E+05 
  48998.1555     0.85232E+05 
  49038.4832     0.84550E+05 
  49078.8109     0.83742E+05 
  49119.1386     0.82859E+05 
  49159.4663     0.81850E+05 
  49199.7940     0.80594E+05 
  49240.1217     0.78983E+05 
  49280.4494     0.77033E+05 
  49320.7771     0.74946E+05 
  49361.1048     0.73094E+05 
  49401.4325     0.71899E+05 
  49441.7602     0.71684E+05 
  49482.0879     0.72548E+05 
  49522.4156     0.74348E+05 
  49562.7433     0.76764E+05 
  49603.0710     0.79415E+05 
  49643.3987     0.81951E+05 
  49683.7264     0.84099E+05 
  49724.0541     0.85702E+05 
  49764.3818     0.86736E+05 
  49804.7095     0.87307E+05 
  49845.0372     0.87599E+05 
  49885.3649     0.87796E+05 
  49925.6926     0.87992E+05 
  49966.0203     0.88162E+05 
  50006.3480     0.88187E+05 
  50046.6757     0.87946E+05 
  50087.0034     0.87399E+05 
  50127.3311     0.86640E+05 
  50167.6588     0.85882E+05 
  50207.9865     0.85390E+05 
  50248.3142     0.85389E+05 
  50288.6419     0.85987E+05 
  50328.9696     0.87158E+05 
  50369.2973     0.88765E+05 
  50409.6250     0.90611E+05 
  50449.9527     0.92475E+05 
  50490.2804     0.94145E+05 
  50530.6081     0.95454E+05 
  50570.9358     0.96308E+05 
  50611.2635     0.96710E+05 
  50651.5912     0.96722E+05 
  50691.9189     0.96405E+05 
  50732.2466     0.95747E+05 
  50772.5743     0.94647E+05 
  50812.9020     0.92969E+05 
  50853.2297     0.90637E+05 
  50893.5574     0.87719E+05 
  50933.8851     0.84445E+05 
  50974.2128     0.81151E+05 
  51014.5405     0.78187E+05 
  51054.8682     0.75818E+05 
  51095.1959     0.74184E+05 
  51135.5236     0.73296E+05 
  51175.8513     0.73068E+05 
  51216.1790     0.73343E+05 
  51256.5067     0.73916E+05 
  51296.8344     0.74582E+05 
  51337.1621     0.75182E+05 
  51377.4898     0.75642E+05 
  51417.8175     0.75967E+05 
  51458.1452     0.76205E+05 
  51498.4729     0.76386E+05 
  51538.8006     0.76483E+05 
  51579.1283     0.76414E+05 
  51619.4560     0.76081E+05 
  51659.7837     0.75427E+05 
  51700.1114     0.74471E+05 
  51740.4391     0.73317E+05 
  51780.7668     0.72119E+05 
  51821.0945     0.71042E+05 
  51861.4222     0.70217E+05 
  51901.7499     0.69723E+05 
  51942.0776     0.69587E+05 
  51982.4053     0.69783E+05 
  52022.7330     0.70234E+05 
  52063.0607     0.70825E+05 
  52103.3884     0.71431E+05 
  52143.7161     0.71952E+05 
  52184.0438     0.72341E+05 
  52224.3715     0.72587E+05 
  52264.6992     0.72692E+05 
  52305.0269     0.72625E+05 
  52345.3546     0.72314E+05 
  52385.6823     0.71670E+05 
  52426.0100     0.70628E+05 
  52466.3377     0.69185E+05 
  52506.6654     0.67409E+05 
  52546.9931     0.65420E+05 
  52587.3208     0.63361E+05 
  52627.6485     0.61367E+05 
  52667.9762     0.59548E+05 
  52708.3039     0.57982E+05 
  52748.6316     0.56711E+05 
  52788.9593     0.55731E+05 
  52829.2870     0.54998E+05 
  52869.6147     0.54441E+05 
  52909.9424     0.53992E+05 
  52950.2701     0.53603E+05 
  52990.5978     0.53255E+05 
  53030.9255     0.52945E+05 
  53071.2532     0.52664E+05 
  53111.5809     0.52383E+05 
  53151.9086     0.52054E+05 
  53192.2363     0.51627E+05 
  53232.5640     0.51068E+05 
  53272.8917     0.50371E+05 
  53313.2194     0.49560E+05 
  53353.5471     0.48678E+05 
  53393.8748     0.47777E+05 
  53434.2025     0.46911E+05 
  53474.5302     0.46126E+05 
  53514.8579     0.45458E+05 
  53555.1856     0.44926E+05 
  53595.5133     0.44524E+05 
  53635.8410     0.44225E+05 
  53676.1687     0.43991E+05 
  53716.4964     0.43791E+05 
  53756.8241     0.43605E+05 
  53797.1518     0.43424E+05 
  53837.4795     0.43236E+05 
  53877.8072     0.43022E+05 
  53918.1349     0.42746E+05 
  53958.4626     0.42374E+05 
  53998.7903     0.41878E+05 
  54039.1180     0.41249E+05 
  54079.4457     0.40496E+05 
  54119.7734     0.39642E+05 
  54160.1011     0.38719E+05 
  54200.4288     0.37762E+05 
  54240.7565     0.36809E+05 
  54281.0842     0.35895E+05 
  54321.4119     0.35045E+05 
  54361.7396     0.34274E+05 
  54402.0673     0.33581E+05 
  54442.3950     0.32955E+05 
  54482.7227     0.32383E+05 
  54523.0504     0.31857E+05 
  54563.3781     0.31372E+05 
  54603.7058     0.30926E+05 
  54644.0335     0.30511E+05 
  54684.3612     0.30114E+05 
  54724.6889     0.29719E+05 
  54765.0166     0.29310E+05 
  54805.3443     0.28875E+05 
  54845.6720     0.28410E+05 
  54885.9997     0.27916E+05 
  54926.3274     0.27400E+05 
  54966.6551     0.26871E+05 
  55006.9828     0.26341E+05 
  55047.3105     0.25825E+05 
  55087.6382     0.25335E+05 
  55127.9659     0.24880E+05 
  55168.2936     0.24463E+05 
  55208.6213     0.24079E+05 
  55248.9490     0.23722E+05 
  55289.2767     0.23388E+05 
  55329.6044     0.23074E+05 
  55369.9321     0.22778E+05 
  55410.2598     0.22494E+05 
  55450.5875     0.22215E+05 
  55490.9152     0.21932E+05 
  55531.2429     0.21634E+05 
  55571.5706     0.21316E+05 
  55611.8983     0.20973E+05 
  55652.2260     0.20605E+05 
  55692.5537     0.20213E+05 
  55732.8814     0.19802E+05 
  55773.2091     0.19379E+05 
  55813.5368     0.18951E+05 
  55853.8645     0.18527E+05 
  55894.1922     0.18115E+05 
  55934.5199     0.17718E+05 
  55974.8476     0.17338E+05 
  56015.1753     0.16974E+05 
  56055.5030     0.16627E+05 
  56095.8307     0.16296E+05 
  56136.1584     0.15982E+05 
  56176.4861     0.15682E+05 
  56216.8138     0.15396E+05 
  56257.1415     0.15120E+05 
  56297.4692     0.14849E+05 
  56337.7969     0.14581E+05 
  56378.1246     0.14314E+05 
  56418.4523     0.14045E+05 
  56458.7800     0.13774E+05 
  56499.1077     0.13501E+05 
  56539.4354     0.13228E+05 
  56579.7631     0.12956E+05 
  56620.0908     0.12689E+05 
  56660.4185     0.12428E+05 
  56700.7462     0.12177E+05 
  56741.0739     0.11934E+05 
  56781.4016     0.11701E+05 
  56821.7293     0.11477E+05 
  56862.0570     0.11261E+05 
  56902.3847     0.11053E+05 
  56942.7124     0.10854E+05 
  56983.0401     0.10660E+05 
  57023.3678     0.10472E+05 
  57063.6955     0.10287E+05 
  57104.0232     0.10102E+05 
  57144.3509     0.99177E+04 
  57184.6786     0.97320E+04 
  57225.0063     0.95445E+04 
  57265.3340     0.93551E+04 
  57305.6617     0.91641E+04 
  57345.9894     0.89724E+04 
  57386.3171     0.87815E+04 
  57426.6448     0.85927E+04 
  57466.9725     0.84071E+04 
  57507.3002     0.82256E+04 
  57547.6279     0.80485E+04 
  57587.9556     0.78761E+04 
  57628.2833     0.77087E+04 
  57668.6110     0.75464E+04 
  57708.9387     0.73894E+04 
  57749.2664     0.72374E+04 
  57789.5941     0.70899E+04 
  57829.9218     0.69464E+04 
  57870.2495     0.68062E+04 
  57910.5772     0.66688E+04 
  57950.9049     0.65337E+04 
  57991.2326     0.64006E+04 
  58031.5603     0.62691E+04 
  58071.8880     0.61392E+04 
  58112.2157     0.60109E+04 
  58152.5434     0.58847E+04 
  58192.8711     0.57608E+04 
  58233.1988     0.56396E+04 
  58273.5265     0.55214E+04 
  58313.8542     0.54061E+04 
  58354.1819     0.52938E+04 
  58394.5096     0.51846E+04 
  58434.8373     0.50784E+04 
  58475.1650     0.49752E+04 
  58515.4927     0.48749E+04 
  58555.8204     0.47773E+04 
  58596.1481     0.46819E+04 
  58636.4758     0.45885E+04 
  58676.8035     0.44968E+04 
  58717.1312     0.44066E+04 
  58757.4589     0.43177E+04 
  58797.7866     0.42298E+04 
  58838.1143     0.41430E+04 
  58878.4420     0.40572E+04 
  58918.7697     0.39725E+04 
  58959.0974     0.38891E+04 
  58999.4251     0.38071E+04 
  59039.7528     0.37267E+04 
  59080.0805     0.36479E+04 
  59120.4082     0.35709E+04 
  59160.7359     0.34956E+04 
  59201.0636     0.34221E+04 
  59241.3913     0.33504E+04 
  59281.7190     0.32806E+04 
  59322.0467     0.32125E+04 
  59362.3744     0.31461E+04 
  59402.7021     0.30813E+04 
  59443.0298     0.30179E+04 
  59483.3575     0.29560E+04 
  59523.6852     0.28953E+04 
  59564.0129     0.28358E+04 
  59604.3406     0.27775E+04 
  59644.6683     0.27203E+04 
  59684.9960     0.26642E+04 
  59725.3237     0.26093E+04 
  59765.6514     0.25555E+04 
  59805.9791     0.25028E+04 
  59846.3068     0.24514E+04 
  59886.6345     0.24011E+04 
  59926.9622     0.23520E+04 
  59967.2899     0.23040E+04 
  60007.6176     0.22572E+04 
  60047.9453     0.22116E+04 
  60088.2730     0.21670E+04 
  60128.6007     0.21234E+04 
  60168.9284     0.20809E+04 
  60209.2561     0.20392E+04 
  60249.5838     0.19985E+04 
  60289.9115     0.19585E+04 
  60330.2392     0.19194E+04 
  60370.5669     0.18810E+04 
  60410.8946     0.18433E+04 
  60451.2223     0.18064E+04 
  60491.5500     0.17701E+04 
  60531.8777     0.17346E+04 
  60572.2054     0.16998E+04 
  60612.5331     0.16657E+04 
  60652.8608     0.16323E+04 
  60693.1885     0.15996E+04 
  60733.5162     0.15677E+04 
  60773.8439     0.15365E+04 
  60814.1716     0.15060E+04 
  60854.4993     0.14762E+04 
  60894.8270     0.14470E+04 
  60935.1547     0.14185E+04 
  60975.4824     0.13907E+04 
  61015.8101     0.13634E+04 
  61056.1378     0.13368E+04 
  61096.4655     0.13107E+04 
  61136.7932     0.12852E+04 
  61177.1209     0.12602E+04 
  61217.4486     0.12357E+04 
  61257.7763     0.12118E+04 
  61298.1040     0.11883E+04 
  61338.4317     0.11653E+04 
  61378.7594     0.11429E+04 
  61419.0871     0.11209E+04 
  61459.4148     0.10994E+04 
  61499.7425     0.10783E+04 
  61540.0702     0.10577E+04 
  61580.3979     0.10376E+04 
  61620.7256     0.10179E+04 
  61661.0533     0.99866E+03 
  61701.3810     0.97981E+03 
  61741.7087     0.96137E+03 
  61782.0364     0.94331E+03 
  61822.3641     0.92563E+03 
  61862.6918     0.90832E+03 
  61903.0195     0.89136E+03 
  61943.3472     0.87474E+03 
  61983.6749     0.85846E+03 
  62024.0026     0.84250E+03 
  62064.3303     0.82687E+03 
  62104.6580     0.81155E+03 
  62144.9857     0.79655E+03 
  62185.3134     0.78185E+03 
  62225.6411     0.76745E+03 
  62265.9688     0.75335E+03 
  62306.2965     0.73954E+03 
  62346.6242     0.72602E+03 
  62386.9519     0.71278E+03 
  62427.2796     0.69982E+03 
  62467.6073     0.68712E+03 
  62507.9350     0.67469E+03 
  62548.2627     0.66251E+03 
  62588.5904     0.65058E+03 
  62628.9181     0.63889E+03 
  62669.2458     0.62743E+03 
  62709.5735     0.61621E+03 
  62749.9012     0.60521E+03 
  62790.2289     0.59442E+03 
  62830.5566     0.58386E+03 
  62870.8843     0.57350E+03 
  62911.2120     0.56335E+03 
  62951.5397     0.55340E+03 
  62991.8674     0.54364E+03 
  63032.1951     0.53408E+03 
  63072.5228     0.52471E+03 
  63112.8505     0.51553E+03 
  63153.1782     0.50652E+03 
  63193.5059     0.49770E+03 
  63233.8336     0.48904E+03 
  63274.1613     0.48056E+03 
  63314.4890     0.47223E+03 
  63354.8167     0.46407E+03 
  63395.1444     0.45607E+03 
  63435.4721     0.44822E+03 
  63475.7998     0.44051E+03 
  63516.1275     0.43295E+03 
  63556.4552     0.42554E+03 
  63596.7829     0.41826E+03 
  63637.1106     0.41112E+03 
  63677.4383     0.40411E+03 
  63717.7660     0.39723E+03 
  63758.0937     0.39049E+03 
  63798.4214     0.38386E+03 
  63838.7491     0.37736E+03 
  63879.0768     0.37098E+03 
  63919.4045     0.36472E+03 
  63959.7322     0.35857E+03 
  64000.0599     0.35254E+03 
  64040.3876     0.34662E+03 
  64080.7153     0.34080E+03 
  64121.0430     0.33509E+03 
  64161.3707     0.32949E+03 
  64201.6984     0.32398E+03 
  64242.0261     0.31858E+03 
  64282.3538     0.31327E+03 
  64322.6815     0.30805E+03 
  64363.0092     0.30293E+03 
  64403.3369     0.29790E+03 
  64443.6646     0.29295E+03 
  64483.9923     0.28810E+03 
  64524.3200     0.28332E+03 
  64564.6477     0.27864E+03 
  64604.9754     0.27403E+03 
  64645.3031     0.26950E+03 
  64685.6308     0.26505E+03 
  64725.9585     0.26068E+03 
  64766.2862     0.25638E+03 
  64806.6139     0.25216E+03 
  64846.9416     0.24801E+03 
  64887.2693     0.24393E+03 
  64927.5970     0.23992E+03 
  64967.9247     0.23597E+03 
  65008.2524     0.23209E+03 
  65048.5801     0.22828E+03 
  65088.9078     0.22453E+03 
  65129.2355     0.22084E+03 
  65169.5632     0.21721E+03 
  65209.8909     0.21364E+03 
  65250.2186     0.21013E+03 
  65290.5463     0.20668E+03 
  65330.8740     0.20328E+03 
  65371.2017     0.19994E+03 
  65411.5294     0.19665E+03 
  65451.8571     0.19342E+03 
  65492.1848     0.19024E+03 
  65532.5125     0.18710E+03 
  65572.8402     0.18402E+03 
  65613.1679     0.18099E+03 
  65653.4956     0.17800E+03 
  65693.8233     0.17507E+03 
  65734.1510     0.17217E+03 
  65774.4787     0.16933E+03 
  65814.8064     0.16653E+03 
  65855.1341     0.16377E+03 
  65895.4618     0.16105E+03 
  65935.7895     0.15838E+03 
  65976.1172     0.15575E+03 
  66016.4449     0.15315E+03 
  66056.7726     0.15060E+03 
  66097.1003     0.14809E+03 
  66137.4280     0.14561E+03 
  66177.7557     0.14318E+03 
  66218.0834     0.14077E+03 
  66258.4111     0.13841E+03 
  66298.7388     0.13608E+03 
  66339.0665     0.13379E+03 
  66379.3942     0.13153E+03 
  66419.7219     0.12930E+03 
  66460.0496     0.12710E+03 
  66500.3773     0.12494E+03 
  66540.7050     0.12281E+03 
  66581.0327     0.12072E+03 
  66621.3604     0.11865E+03 
  66661.6881     0.11661E+03 
  66702.0158     0.11460E+03 
  66742.3435     0.11262E+03 
  66782.6712     0.11067E+03 
  66822.9989     0.10875E+03 
  66863.3266     0.10686E+03 
  66903.6543     0.10499E+03 
  66943.9820     0.10315E+03 
  66984.3097     0.10134E+03 
  67024.6374     0.99551E+02 
  67064.9651     0.97788E+02 
  67105.2928     0.96051E+02 
  67145.6205     0.94339E+02 
  67185.9482     0.92651E+02 
  67226.2759     0.90986E+02 
  67266.6036     0.89345E+02 
  67306.9313     0.87728E+02 
  67347.2590     0.86133E+02 
  67387.5867     0.84560E+02 
  67427.9144     0.83009E+02 
  67468.2421     0.81481E+02 
  67508.5698     0.79973E+02 
  67548.8975     0.78487E+02 
  67589.2252     0.77021E+02 
  67629.5529     0.75576E+02 
  67669.8806     0.74150E+02 
  67710.2083     0.72745E+02 
  67750.5360     0.71359E+02 
  67790.8637     0.69993E+02 
  67831.1914     0.68645E+02 
  67871.5191     0.67316E+02 
  67911.8468     0.66005E+02 
  67952.1745     0.64713E+02 
  67992.5022     0.63438E+02 
  68032.8299     0.62182E+02 
  68073.1576     0.60942E+02 
  68113.4853     0.59720E+02 
  68153.8130     0.58515E+02 
  68194.1407     0.57326E+02 
  68234.4684     0.56154E+02 
  68274.7961     0.54998E+02 
  68315.1238     0.53858E+02 
  68355.4515     0.52734E+02 
  68395.7792     0.51626E+02 
  68436.1069     0.50533E+02 
  68476.4346     0.49456E+02 
  68516.7623     0.48393E+02 
  68557.0900     0.47346E+02 
  68597.4177     0.46313E+02 
  68637.7454     0.45294E+02 
  68678.0731     0.44290E+02 
  68718.4008     0.43300E+02 
  68758.7285     0.42325E+02 
  68799.0562     0.41363E+02 
  68839.3839     0.40414E+02 
  68879.7116     0.39480E+02 
  68920.0393     0.38559E+02 
  68960.3670     0.37651E+02 
  69000.6947     0.36756E+02 
  69041.0224     0.35874E+02 
  69081.3501     0.35005E+02 
  69121.6778     0.34148E+02 
  69162.0055     0.33305E+02 
  69202.3332     0.32473E+02 
  69242.6609     0.31655E+02 
  69282.9886     0.30848E+02 
  69323.3163     0.30053E+02 
  69363.6440     0.29271E+02 
  69403.9717     0.28500E+02 
  69444.2994     0.27741E+02 
  69484.6271     0.26994E+02 
  69524.9548     0.26258E+02 
  69565.2825     0.25534E+02 
  69605.6102     0.24822E+02 
  69645.9379     0.24120E+02 
  69686.2656     0.23430E+02 
  69726.5933     0.22751E+02 
  69766.9210     0.22083E+02 
  69807.2487     0.21426E+02 
  69847.5764     0.20780E+02 
  69887.9041     0.20144E+02 
  69928.2318     0.19520E+02 
  69968.5595     0.18906E+02 
  70008.8872     0.18303E+02 
  70049.2149     0.17710E+02 
  70089.5426     0.17128E+02 
  70129.8703     0.16556E+02 
  70170.1980     0.15994E+02 
  70210.5257     0.15443E+02 
  70250.8534     0.14902E+02 
  70291.1811     0.14371E+02 
  70331.5088     0.13851E+02 
  70371.8365     0.13340E+02 
  70412.1642     0.12840E+02 
  70452.4919     0.12350E+02 
  70492.8196     0.11869E+02 
  70533.1473     0.11399E+02 
  70573.4750     0.10938E+02 
  70613.8027     0.10488E+02 
  70654.1304     0.10047E+02 
  70694.4581     0.96161E+01 
  70734.7858     0.91950E+01 
  70775.1135     0.87837E+01 
  70815.4412     0.83821E+01 
  70855.7689     0.79902E+01 
  70896.0966     0.76081E+01 
  70936.4243     0.72357E+01 
  70976.7520     0.68730E+01 
  71017.0797     0.65200E+01 
  71057.4074     0.61767E+01 
  71097.7351     0.58430E+01 
  71138.0628     0.55190E+01 
  71178.3905     0.52046E+01 
  71218.7182     0.49000E+01 
  71259.0459     0.46050E+01 
  71299.3736     0.43196E+01 
  71339.7013     0.40440E+01 
  71380.0290     0.37780E+01 
  71420.3567     0.35218E+01 
  71460.6844     0.32752E+01 
  71501.0121     0.30384E+01 
  71541.3398     0.28113E+01 
  71581.6675     0.25940E+01 
  71621.9952     0.23865E+01 
  71662.3229     0.21888E+01 
  71702.6506     0.20009E+01 
  71742.9783     0.18229E+01 
  71783.3060     0.16548E+01 
  71823.6337     0.14966E+01 
  71863.9614     0.13483E+01 
  71904.2891     0.12101E+01 
  71944.6168     0.10819E+01 
  71984.9445     0.96378E+00 
  72025.2722     0.85577E+00 
  72065.5999     0.75794E+00 
  72105.9276     0.67031E+00 
  72146.2553     0.59295E+00 
  72186.5830     0.52591E+00 
  72226.9107     0.46924E+00 
  72267.2384     0.42300E+00 
  72307.5661     0.38725E+00 
  72347.8938     0.36205E+00 
  72388.2215     0.34746E+00 
  72428.5492     0.34355E+00 
  72468.8769     0.35040E+00 
  72509.2046     0.36807E+00 
  72549.5323     0.39663E+00 
  72589.8600     0.43616E+00 
