       18.57700      0.37075610E-010
       22.31575      0.28233677E-009
       26.05450      0.19726191E-008
       29.79325      0.12644910E-007
       33.53200      0.74367793E-007
       37.27075      0.40128297E-006
       41.00950      0.19866129E-005
       44.74825      0.90234466E-005
       48.48700      0.37603505E-004
       52.22575      0.14377418E-003
       55.96450      0.50434779E-003
       59.70325      0.16232149E-002
       63.44200      0.47931235E-002
       67.18075      0.12985477E-001
       70.91950      0.32277051E-001
       74.65825      0.73608247E-001
       78.39700      0.15401244     
       82.13576      0.29565268     
       85.87451      0.52072041     
       89.61326      0.84144208     
       93.35201       1.2475012     
       97.09076       1.6968970     
      100.82951       2.1177246     
      104.56826       2.4248631     
      108.30701       2.5475319     
      112.04576       2.4558089     
      115.78451       2.1726173     
      119.52326       1.7646885     
      123.26201       1.3173958     
      127.00076      0.90640081     
      130.73951      0.57874008     
      134.47826      0.34873790     
      138.21701      0.20582273     
      141.95576      0.12707405     
      145.69451      0.88135338E-001
      149.43326      0.69571041E-001
      153.17201      0.58865442E-001
      156.91076      0.49678001E-001
      160.64951      0.39961741E-001
      164.38826      0.29989185E-001
      168.12701      0.20806879E-001
      171.86576      0.13298312E-001
      175.60451      0.78180605E-002
      179.34326      0.42251912E-002
      183.08201      0.20985118E-002
      186.82076      0.95768195E-003
      190.55951      0.40153591E-003
      194.29826      0.15465997E-003
      198.03701      0.54720055E-004
      201.77576      0.17785266E-004
      205.51451      0.53257400E-005
      209.25327      0.15538399E-005
      212.99202      0.85252677E-006
      216.73077      0.22727970E-005
      220.46952      0.90507483E-005
      224.20827      0.34220723E-004
      227.94702      0.11895785E-003
      231.68577      0.37959104E-003
      235.42452      0.11119871E-002
      239.16327      0.29912798E-002
      242.90202      0.73918152E-002
      246.64077      0.16788593E-001
      250.37952      0.35073165E-001
      254.11827      0.67467194E-001
      257.85702      0.11967478     
      261.59577      0.19614036     
      265.33452      0.29780030     
      269.07327      0.42027066     
      272.81202      0.55352223     
      276.55077      0.68346708     
      280.28952      0.79483134     
      284.02827      0.87403900     
      287.76702      0.91116384     
      291.50577      0.90098024     
      295.24452      0.84372786     
      298.98327      0.74577901     
      302.72202      0.61949814     
      306.46077      0.48136398     
      310.19952      0.34835726     
      313.93827      0.23392666     
      317.67702      0.14532496     
      321.41577      0.83331893E-001
      325.15452      0.44034430E-001
      328.89327      0.21438981E-001
      332.63203      0.97136435E-002
      336.37078      0.45339518E-002
      340.10953      0.38116812E-002
      343.84828      0.87705955E-002
      347.58703      0.27030389E-001
      351.32578      0.80269256E-001
      355.06453      0.21981498     
      358.80328      0.55264946     
      362.54203       1.2750957     
      366.28078       2.6997520     
      370.01953       5.2456295     
      373.75828       9.3534255     
      377.49703       15.305600     
      381.23578       22.984990     
      384.97453       31.678221     
      388.71328       40.068995     
      392.45203       46.515378     
      396.19078       49.560404     
      399.92953       48.465618     
      403.66828       43.501569     
      407.40703       35.839635     
      411.14578       27.104450     
      414.88453       18.820937     
      418.62328       12.012504     
      422.36203       7.0835099     
      426.10078       3.9537923     
      429.83953       2.3120152     
      433.57828       1.8514442     
      437.31703       2.4078237     
      441.05578       3.9781716     
      444.79453       6.6351187     
      448.53328       10.372852     
      452.27203       14.944453     
      456.01079       19.772244     
      459.74954       24.005459     
      463.48829       26.740987     
      467.22704       27.330335     
      470.96579       25.627712     
      474.70454       22.048120     
      478.44329       17.403236     
      482.18204       12.603331     
      485.92079       8.3741144     
      489.65954       5.1050578     
      493.39829       2.8559261     
      497.13704       1.4681045     
      500.87579      0.70047248     
      504.61454      0.33306076     
      508.35329      0.22385188     
      512.09204      0.33529311     
      515.83079      0.75573602     
      519.56954       1.7294335     
      523.30829       3.6837072     
      527.04704       7.2126422     
      530.78579       12.960154     
      534.52454       21.366693     
      538.26329       32.319408     
      542.00204       44.852510     
      545.74079       57.109352     
      549.47954       66.715240     
      553.21829       71.505785     
      556.95704       70.316871     
      560.69579       63.444810     
      564.43454       52.531030     
      568.17329       39.937735     
      571.91204       27.949283     
      575.65079       18.183102     
      579.38954       11.418236     
      583.12830       7.7945870     
      586.86705       7.1648091     
      590.60580       9.3611201     
      594.34455       14.237244     
      598.08330       21.489514     
      601.82205       30.391030     
      605.56080       39.641601     
      609.29955       47.502811     
      613.03830       52.242419     
      616.77705       52.717916     
      620.51580       48.808858     
      624.25455       41.460945     
      627.99330       32.313346     
      631.73205       23.106788     
      635.47080       15.162096     
      639.20955       9.1329522     
      642.94830       5.0571807     
      646.68705       2.5872703     
      650.42580       1.2446251     
      654.16455      0.59537102     
      657.90330      0.32414399     
      661.64205      0.23453430     
      665.38080      0.21775477     
      669.11955      0.21908626     
      672.85830      0.21416857     
      676.59705      0.19539256     
      680.33580      0.16441826     
      684.07455      0.12744072     
      687.81330      0.91950288E-001
      691.55205      0.65426465E-001
      695.29080      0.57256901E-001
      699.02955      0.85644861E-001
      702.76830      0.19160363     
      706.50706      0.46138421     
      710.24581       1.0545816     
      713.98456       2.2258010     
      717.72331       4.3152381     
      721.46206       7.6774113     
      725.20081       12.532547     
      728.93956       18.770016     
      732.67831       25.792249     
      736.41706       32.517336     
      740.15581       37.613797     
      743.89456       39.920668     
      747.63331       38.877082     
      751.37206       34.745235     
      755.11081       28.506322     
      758.84956       21.486181     
      762.58831       14.906442     
      766.32706       9.5695905     
      770.06581       5.7825385     
      773.80456       3.4901945     
      777.54331       2.5120980     
      781.28206       2.7724595     
      785.02081       4.4500335     
      788.75956       8.0035256     
      792.49831       14.039887     
      796.23706       23.015672     
      799.97581       34.829680     
      803.71456       48.469374     
      807.45331       61.941395     
      811.19206       72.653667     
      814.93081       78.199043     
      818.66956       77.227559     
      822.40831       69.976610     
      826.14706       58.174921     
      829.88582       44.372899     
      833.62457       31.052570     
      837.36332       19.937670     
      841.10207       11.744868     
      844.84082       6.3477332     
      848.57957       3.1476460     
      852.31832       1.4320224     
      856.05707      0.59773778     
      859.79582      0.22891367     
      863.53457      0.80440565E-001
      867.27332      0.25970524E-001
      871.01207      0.78346865E-002
      874.75082      0.26784186E-002
      878.48957      0.24907010E-002
      882.22832      0.60938091E-002
      885.96707      0.16632085E-001
      889.70582      0.42351714E-001
      893.44457      0.99070862E-001
      897.18332      0.21264706     
      900.92207      0.41876726     
      904.66082      0.75662925     
      908.39957       1.2542693     
      912.13832       1.9076423     
      915.87707       2.6619867     
      919.61582       3.4082527     
      923.35457       4.0042568     
      927.09332       4.3185063     
      930.83207       4.2804453     
      934.57082       3.9148194     
      938.30957       3.3463695     
      942.04832       2.7792852     
      945.78707       2.4696279     
      949.52582       2.7057630     
      953.26457       3.7919501     
      957.00333       6.0089905     
      960.74208       9.5249303     
      964.48083       14.260529     
      968.21958       19.766722     
      971.95833       25.207304     
      975.69708       29.517947     
      979.43583       31.724259     
      983.17458       31.294263     
      986.91333       28.354038     
      990.65208       23.656746     
      994.39083       18.332103     
      998.12958       13.560236     
     1001.86833       10.328787     
     1005.60708       9.3415293     
     1009.34583       11.024605     
     1013.08458       15.514254     
     1016.82333       22.552333     
     1020.56208       31.332946     
     1024.30083       40.448947     
     1028.03958       48.090131     
     1031.77833       52.516015     
     1035.51708       52.635443     
     1039.25583       48.409828     
     1042.99458       40.858516     
     1046.73333       31.657211     
     1050.47208       22.539472     
     1054.21083       14.789168     
     1057.94958       9.0144847     
     1061.68833       5.2138909     
     1065.42708       3.0093629     
     1069.16583       1.8958418     
     1072.90458       1.4134454     
     1076.64333       1.2243301     
     1080.38209       1.1214675     
     1084.12084       1.0044974     
     1087.85959      0.84610484     
     1091.59834      0.65978064     
     1095.33709      0.47354515     
     1099.07584      0.31218582     
     1102.81459      0.18891133     
     1106.55334      0.10494575     
     1110.29209      0.53709507E-001
     1114.03084      0.26096562E-001
     1117.76959      0.14864678E-001
     1121.50834      0.18325870E-001
     1125.24709      0.45499409E-001
     1128.98584      0.12624720     
     1132.72459      0.33001275     
     1136.46334      0.79395027     
     1140.20209       1.7531142     
     1143.94084       3.5517502     
     1147.67959       6.6019823     
     1151.41834       11.259156     
     1155.15709       17.617374     
     1158.89584       25.292552     
     1162.63459       33.319148     
     1166.37334       40.284359     
     1170.11209       44.726988     
     1173.85084       45.674092     
     1177.58959       43.078161     
     1181.32834       37.941658     
     1185.06709       32.069137     
     1188.80584       27.562305     
     1192.54459       26.251991     
     1196.28334       29.220595     
     1200.02209       36.492544     
     1203.76085       46.950361     
     1207.49960       58.564639     
     1211.23835       69.006217     
     1214.97710       76.555344     
     1218.71585       80.985001     
     1222.45460       83.948109     
     1226.19335       88.505557     
     1229.93210       97.806320     
     1233.67085       113.40242     
     1237.40960       133.99016     
     1241.14835       155.30366     
     1244.88710       171.40376     
     1248.62585       176.89748     
     1252.36460       169.07498     
     1256.10335       148.93128     
     1259.84210       120.61974     
     1263.58085       89.719663     
     1267.31960       61.257821     
     1271.05835       38.382239     
     1274.79710       22.066937     
     1278.53585       11.640519     
     1282.27460       5.6339059     
     1286.01335       2.5017758     
     1289.75210       1.0192627     
     1293.49085      0.38099710     
     1297.22960      0.13066353     
     1300.96835      0.41113467E-001
     1304.70710      0.11868964E-001
     1308.44585      0.31440958E-002
     1312.18460      0.76679101E-003
     1315.92335      0.18700775E-003
     1319.66210      0.12411979E-003
     1323.40085      0.44481266E-003
     1327.13960      0.19750787E-002
     1330.87836      0.81570670E-002
     1334.61711      0.30924978E-001
     1338.35586      0.10756976     
     1342.09461      0.34329543     
     1345.83336       1.0051770     
     1349.57211       2.7003109     
     1353.31086       6.6555154     
     1357.04961       15.050342     
     1360.78836       31.225392     
     1364.52711       59.438308     
     1368.26586       103.80599     
     1372.00461       166.33237     
     1375.74336       244.52964     
     1379.48211       329.83069     
     1383.22086       408.19271     
     1386.95961       463.52779     
     1390.69836       483.02646     
     1394.43711       462.01752     
     1398.17586       405.86371     
     1401.91461       327.85558     
     1405.65336       244.23402     
     1409.39211       168.87687     
     1413.13086       109.97368     
     1416.86961       69.559931     
     1420.60836       45.224032     
     1424.34711       32.560542     
     1428.08586       27.159037     
     1431.82461       25.617968     
     1435.56336       25.703918     
     1439.30211       26.067737     
     1443.04086       25.903675     
     1446.77961       24.752744     
     1450.51836       22.458308     
     1454.25712       19.172707     
     1457.99587       15.313018     
     1461.73462       11.436488     
     1465.47337       8.0834919     
     1469.21212       5.6619906     
     1472.95087       4.4133756     
     1476.68962       4.4414774     
     1480.42837       5.7518612     
     1484.16712       8.2607991     
     1487.90587       11.778976     
     1491.64462       16.015178     
     1495.38337       20.641921     
     1499.12212       25.410266     
     1502.86087       30.232885     
     1506.59962       35.138517     
     1510.33837       40.076677     
     1514.07712       44.681731     
     1517.81587       48.185199     
     1521.55462       49.605169     
     1525.29337       48.159781     
     1529.03212       43.678528     
     1532.77087       36.761221     
     1536.50962       28.586043     
     1540.24837       20.481610     
     1543.98712       13.498441     
     1547.72587       8.1745861     
     1551.46462       4.5461301     
     1555.20337       2.3208716     
     1558.94212       1.0874210     
     1562.68087      0.46754620     
     1566.41962      0.18445808     
     1570.15837      0.66772401E-001
     1573.89712      0.22177393E-001
     1577.63588      0.67582002E-002
     1581.37463      0.18895329E-002
     1585.11338      0.48470580E-003
     1588.85213      0.11407772E-003
     1592.59088      0.24633232E-004
     1596.32963      0.48802201E-005
     1600.06838      0.88706320E-006
     1603.80713      0.14793354E-006
     1607.54588      0.22634745E-007
     1611.28463      0.31774690E-008
     1615.02338      0.40924536E-009
     1618.76213      0.48359636E-010
     1622.50088      0.52431643E-011
     1626.23963      0.52409126E-012
     1629.97838      0.81792415E-013
     1633.71713      0.42134660E-012
     1637.45588      0.46736416E-011
     1641.19463      0.48010748E-010
     1644.93338      0.45252886E-009
     1648.67213      0.39133705E-008
     1652.41088      0.31049336E-007
     1656.14963      0.22602181E-006
     1659.88838      0.15095415E-005
     1663.62713      0.92498878E-005
     1667.36588      0.52002537E-004
     1671.10463      0.26823119E-003
     1674.84338      0.12693773E-002
     1678.58213      0.55114874E-002
     1682.32088      0.21955514E-001
     1686.05963      0.80244462E-001
     1689.79838      0.26908111     
     1693.53713      0.82784309     
     1697.27588       2.3367353     
     1701.01463       6.0515650     
     1704.75339       14.378797     
     1708.49214       31.345420     
     1712.23089       62.693469     
     1715.96964       115.04485     
     1719.70839       193.69070     
     1723.44714       299.18997     
     1727.18589       424.01576     
     1730.92464       551.33271     
     1734.66339       657.72241     
     1738.40214       719.89613     
     1742.14089       722.93594     
     1745.87964       666.11499     
     1749.61839       563.22253     
     1753.35714       437.24327     
     1757.09589       312.27411     
     1760.83464       206.66658     
     1764.57339       130.04299     
     1768.31214       84.280696     
     1772.05089       66.582326     
     1775.78964       72.337375     
     1779.52839       96.415537     
     1783.26714       132.92957     
     1787.00589       174.52324     
     1790.74464       212.43250     
     1794.48339       237.93690     
     1798.22214       244.76620     
     1801.96089       231.21903     
     1805.69964       200.74198     
     1809.43839       160.54728     
     1813.17714       118.94678     
     1816.91589       82.699792     
     1820.65464       55.467676     
     1824.39339       37.711617     
     1828.13215       27.641687     
     1831.87090       22.523463     
     1835.60965       19.773980     
     1839.34840       17.585903     
     1843.08715       15.081255     
     1846.82590       12.134502     
     1850.56465       9.0437766     
     1854.30340       6.2087550     
     1858.04215       3.9171563     
     1861.78090       2.2689675     
     1865.51965       1.2061554     
     1869.25840      0.58833487     
     1872.99715      0.26330736     
     1876.73590      0.10812010     
     1880.47465      0.40733339E-001
     1884.21340      0.14079644E-001
     1887.95215      0.44650937E-002
     1891.69090      0.12991713E-002
     1895.42965      0.34681591E-003
     1899.16840      0.84943145E-004
     1902.90715      0.19087733E-004
     1906.64590      0.39352929E-005
     1910.38465      0.74438299E-006
     1914.12340      0.12918512E-006
     1917.86215      0.20569572E-007
     1921.60090      0.30049321E-008
     1925.33965      0.40275484E-009
     1929.07840      0.49527174E-010
     1932.81715      0.55878276E-011
     1936.55590      0.57841445E-012
     1940.29465      0.54932827E-013
     1944.03340      0.47865372E-014
     1947.77215      0.38265519E-015
     1951.51091      0.28066642E-016
     1955.24966      0.18887304E-017
     1958.98841      0.11661279E-018
     1962.72716      0.66057034E-020
     1966.46591      0.34331172E-021
     1970.20466      0.16370233E-022
     1973.94341      0.71617274E-024
     1977.68216      0.28745998E-025
     1981.42091      0.10586043E-026
     1985.15966      0.35767338E-028
     1988.89841      0.11087567E-029
     1992.63716      0.31534254E-031
     1996.37591      0.82285923E-033
     2000.11466      0.19699954E-034
     2003.85341      0.43271461E-036
     2007.59216      0.87203633E-038
     2011.33091      0.16123684E-039
     2015.06966      0.27352099E-041
     2018.80841      0.42570987E-043
     2022.54716      0.60790184E-045
     2026.28591      0.79643415E-047
     2030.02466      0.95733286E-049
     2033.76341      0.10557783E-050
     2037.50216      0.10682655E-052
     2041.24091      0.99170458E-055
     2044.97966      0.84466039E-057
     2048.71841      0.66005270E-059
     2052.45716      0.47322946E-061
     2056.19591      0.31128745E-063
     2059.93466      0.18786598E-065
     2063.67341      0.10402347E-067
     2067.41216      0.52845890E-070
     2071.15091      0.24631325E-072
     2074.88966      0.10533216E-074
     2078.62842      0.41326718E-077
     2082.36717      0.14876388E-079
     2086.10592      0.49131586E-082
     2089.84467      0.14887464E-084
     2093.58342      0.41388278E-087
     2097.32217      0.10556760E-089
     2101.06092      0.24704760E-092
     2104.79967      0.53042905E-095
     2108.53842      0.10448902E-097
     2112.27717      0.18884725E-100
     2116.01592      0.31314635E-103
     2119.75467      0.47640985E-106
     2123.49342      0.66498337E-109
     2127.23217      0.85160366E-112
     2130.97092      0.10006010E-114
     2134.70967      0.10786512E-117
     2138.44842       0.0000000     
     2142.18717       0.0000000     
     2145.92592       0.0000000     
     2149.66467       0.0000000     
     2153.40342       0.0000000     
     2157.14217       0.0000000     
     2160.88092       0.0000000     
     2164.61967       0.0000000     
     2168.35842       0.0000000     
     2172.09717       0.0000000     
     2175.83592       0.0000000     
     2179.57467       0.0000000     
     2183.31342       0.0000000     
     2187.05217       0.0000000     
     2190.79092       0.0000000     
     2194.52967       0.0000000     
     2198.26842       0.0000000     
     2202.00718       0.0000000     
     2205.74593       0.0000000     
     2209.48468       0.0000000     
     2213.22343       0.0000000     
     2216.96218       0.0000000     
     2220.70093       0.0000000     
     2224.43968       0.0000000     
     2228.17843       0.0000000     
     2231.91718       0.0000000     
     2235.65593       0.0000000     
     2239.39468       0.0000000     
     2243.13343       0.0000000     
     2246.87218       0.0000000     
     2250.61093       0.0000000     
     2254.34968       0.0000000     
     2258.08843       0.0000000     
     2261.82718       0.0000000     
     2265.56593       0.0000000     
     2269.30468       0.0000000     
     2273.04343       0.0000000     
     2276.78218       0.0000000     
     2280.52093       0.0000000     
     2284.25968       0.0000000     
     2287.99843       0.0000000     
     2291.73718       0.0000000     
     2295.47593       0.0000000     
     2299.21468       0.0000000     
     2302.95343       0.0000000     
     2306.69218       0.0000000     
     2310.43093       0.0000000     
     2314.16968       0.0000000     
     2317.90843       0.0000000     
     2321.64718       0.0000000     
     2325.38594       0.0000000     
     2329.12469       0.0000000     
     2332.86344       0.0000000     
     2336.60219       0.0000000     
     2340.34094       0.0000000     
     2344.07969       0.0000000     
     2347.81844       0.0000000     
     2351.55719       0.0000000     
     2355.29594       0.0000000     
     2359.03469       0.0000000     
     2362.77344       0.0000000     
     2366.51219       0.0000000     
     2370.25094       0.0000000     
     2373.98969       0.0000000     
     2377.72844       0.0000000     
     2381.46719       0.0000000     
     2385.20594       0.0000000     
     2388.94469       0.0000000     
     2392.68344       0.0000000     
     2396.42219       0.0000000     
     2400.16094       0.0000000     
     2403.89969       0.0000000     
     2407.63844       0.0000000     
     2411.37719       0.0000000     
     2415.11594       0.0000000     
     2418.85469       0.0000000     
     2422.59344       0.0000000     
     2426.33219       0.0000000     
     2430.07094       0.0000000     
     2433.80969       0.0000000     
     2437.54844       0.0000000     
     2441.28719       0.0000000     
     2445.02594       0.0000000     
     2448.76469       0.0000000     
     2452.50345       0.0000000     
     2456.24220       0.0000000     
     2459.98095       0.0000000     
     2463.71970       0.0000000     
     2467.45845       0.0000000     
     2471.19720       0.0000000     
     2474.93595       0.0000000     
     2478.67470       0.0000000     
     2482.41345       0.0000000     
     2486.15220       0.0000000     
     2489.89095       0.0000000     
     2493.62970       0.0000000     
     2497.36845       0.0000000     
     2501.10720       0.0000000     
     2504.84595       0.0000000     
     2508.58470       0.0000000     
     2512.32345       0.0000000     
     2516.06220       0.0000000     
     2519.80095       0.0000000     
     2523.53970       0.0000000     
     2527.27845       0.0000000     
     2531.01720       0.0000000     
     2534.75595       0.0000000     
     2538.49470       0.0000000     
     2542.23345       0.0000000     
     2545.97220       0.0000000     
     2549.71095       0.0000000     
     2553.44970       0.0000000     
     2557.18845       0.0000000     
     2560.92720       0.0000000     
     2564.66595       0.0000000     
     2568.40470       0.0000000     
     2572.14345       0.0000000     
     2575.88221       0.0000000     
     2579.62096       0.0000000     
     2583.35971       0.0000000     
     2587.09846       0.0000000     
     2590.83721       0.0000000     
     2594.57596       0.0000000     
     2598.31471       0.0000000     
     2602.05346       0.0000000     
     2605.79221       0.0000000     
     2609.53096       0.0000000     
     2613.26971       0.0000000     
     2617.00846       0.0000000     
     2620.74721       0.0000000     
     2624.48596       0.0000000     
     2628.22471       0.0000000     
     2631.96346       0.0000000     
     2635.70221       0.0000000     
     2639.44096       0.0000000     
     2643.17971       0.0000000     
     2646.91846       0.0000000     
     2650.65721       0.0000000     
     2654.39596       0.0000000     
     2658.13471       0.0000000     
     2661.87346       0.0000000     
     2665.61221       0.0000000     
     2669.35096       0.0000000     
     2673.08971       0.0000000     
     2676.82846       0.0000000     
     2680.56721       0.0000000     
     2684.30596       0.0000000     
     2688.04471       0.0000000     
     2691.78346       0.0000000     
     2695.52221       0.0000000     
     2699.26097       0.0000000     
     2702.99972       0.0000000     
     2706.73847       0.0000000     
     2710.47722       0.0000000     
     2714.21597       0.0000000     
     2717.95472       0.0000000     
     2721.69347       0.0000000     
     2725.43222       0.0000000     
     2729.17097       0.0000000     
     2732.90972       0.0000000     
     2736.64847       0.0000000     
     2740.38722       0.0000000     
     2744.12597       0.0000000     
     2747.86472       0.0000000     
     2751.60347       0.0000000     
     2755.34222       0.0000000     
     2759.08097       0.0000000     
     2762.81972      0.12265807E-117
     2766.55847      0.11152763E-114
     2770.29722      0.93039093E-112
     2774.03597      0.71210684E-109
     2777.77472      0.50005932E-106
     2781.51347      0.32217703E-103
     2785.25222      0.19044269E-100
     2788.99097      0.10328344E-097
     2792.72972      0.51391796E-095
     2796.46847      0.23461380E-092
     2800.20722      0.98267520E-090
     2803.94597      0.37762707E-087
     2807.68472      0.13314134E-084
     2811.42347      0.43068464E-082
     2815.16222      0.12782110E-079
     2818.90097      0.34805059E-077
     2822.63972      0.86951861E-075
     2826.37848      0.19930219E-072
     2830.11723      0.41912343E-070
     2833.85598      0.80866470E-068
     2837.59473      0.14315012E-065
     2841.33348      0.23249393E-063
     2845.07223      0.34644013E-061
     2848.81098      0.47363245E-059
     2852.54973      0.59408883E-057
     2856.28848      0.68368808E-055
     2860.02723      0.72187383E-053
     2863.76598      0.69929637E-051
     2867.50473      0.62152403E-049
     2871.24348      0.50681709E-047
     2874.98223      0.37917637E-045
     2878.72098      0.26027230E-043
     2882.45973      0.16391221E-041
     2886.19848      0.94709023E-040
     2889.93723      0.50207440E-038
     2893.67598      0.24419765E-036
     2897.41473      0.10897115E-034
     2901.15348      0.44614734E-033
     2904.89223      0.16758755E-031
     2908.63098      0.57756632E-030
     2912.36973      0.18262434E-028
     2916.10848      0.52980020E-027
     2919.84723      0.14101401E-025
     2923.58598      0.34435714E-024
     2927.32473      0.77152961E-023
     2931.06348      0.15859620E-021
     2934.80223      0.29910911E-020
     2938.54098      0.51756296E-019
     2942.27973      0.82166238E-018
     2946.01848      0.11967965E-016
     2949.75724      0.15993513E-015
     2953.49599      0.19609392E-014
     2957.23474      0.22058758E-013
     2960.97349      0.22766416E-012
     2964.71224      0.21557826E-011
     2968.45099      0.18728885E-010
     2972.18974      0.14928479E-009
     2975.92849      0.10917316E-008
     2979.66724      0.73250889E-008
     2983.40599      0.45092736E-007
     2987.14474      0.25468123E-006
     2990.88349      0.13197266E-005
     2994.62224      0.62743349E-005
     2998.36099      0.27368317E-004
     3002.09974      0.10952800E-003
     3005.83849      0.40216004E-003
     3009.57724      0.13547818E-002
     3013.31599      0.41873229E-002
     3017.05474      0.11874087E-001
     3020.79349      0.30893044E-001
     3024.53224      0.73742498E-001
     3028.27099      0.16149968     
     3032.00974      0.32450558     
     3035.74849      0.59823159     
     3039.48724       1.0118432     
     3043.22599       1.5701955     
     3046.96474       2.2355838     
     3050.70349       2.9202824     
     3054.44224       3.4998985     
     3058.18099       3.8484233     
     3061.91974       3.8824628     
     3065.65849       3.5936028     
     3069.39724       3.0517994     
     3073.13600       2.3779592     
     3076.87475       1.7004077     
     3080.61350       1.1166425     
     3084.35225      0.67537359     
     3088.09100      0.38059218     
     3091.82975      0.20880924     
     3095.56850      0.12791666     
     3099.30725      0.11007252     
     3103.04600      0.13687257     
     3106.78475      0.19898706     
     3110.52350      0.29331662     
     3114.26225      0.41955412     
     3118.00100      0.57651003     
     3121.73975      0.75801830     
     3125.47850      0.94911518     
     3129.21725       1.1246444     
     3132.95600       1.2527667     
     3136.69475       1.3038233     
     3140.43350       1.2614070     
     3144.17225       1.1300090     
     3147.91100      0.93466453     
     3151.64975      0.71236308     
     3155.38850      0.49962421     
     3159.12725      0.32231603     
     3162.86600      0.19172343     
     3166.60475      0.10710110     
     3170.34350      0.62278242E-001
     3174.08225      0.53638782E-001
     3177.82100      0.88181269E-001
     3181.55975      0.19144035     
     3185.29850      0.41421021     
     3189.03725      0.83405585     
     3192.77600       1.5444489     
     3196.51475       2.6248895     
     3200.25351       4.0932788     
     3203.99226       5.8564239     
     3207.73101       7.6876047     
     3211.46976       9.2586222     
     3215.20851       10.230536     
     3218.94726       10.371632     
     3222.68601       9.6470040     
     3226.42476       8.2325526     
     3230.16351       6.4457469     
     3233.90226       4.6302950     
     3237.64101       3.0516924     
     3241.37976       1.8453108     
     3245.11851       1.0237525     
     3248.85726      0.52109523     
     3252.59601      0.24335255     
     3256.33476      0.10426808     
     3260.07351      0.40988643E-001
     3263.81226      0.14783334E-001
     3267.55101      0.48919037E-002
     3271.28976      0.14851834E-002
     3275.02851      0.41369376E-003
     3278.76726      0.10572423E-003
     3282.50601      0.24789442E-004
     3286.24476      0.53328046E-005
     3289.98351      0.10525464E-005
     3293.72226      0.19060028E-006
     3297.46101      0.31666675E-007
     3301.19976      0.48270088E-008
     3304.93851      0.67507247E-009
     3308.67726      0.86620239E-010
     3312.41601      0.10197296E-010
     3316.15476      0.11014058E-011
     3319.89351      0.10914564E-012
     3323.63227      0.99234362E-014
     3327.37102      0.82777909E-015
     3331.10977      0.63352463E-016
     3334.84852      0.44484553E-017
     3338.58727      0.28658380E-018
     3342.32602      0.16939115E-019
     3346.06477      0.91860010E-021
     3349.80352      0.45704497E-022
     3353.54227      0.20863543E-023
     3357.28102      0.87380365E-025
     3361.01977      0.33576570E-026
     3364.75852      0.11837377E-027
     3368.49727      0.38288762E-029
     3372.23602      0.11362760E-030
     3375.97477      0.30938056E-032
     3379.71352      0.77285656E-034
     3383.45227      0.17713380E-035
     3387.19102      0.37247804E-037
     3390.92977      0.71861549E-039
     3394.66852      0.12720060E-040
     3398.40727      0.20657531E-042
     3402.14602      0.30779698E-044
     3405.88477      0.42077214E-046
     3409.62352      0.52774761E-048
     3413.36227      0.60729856E-050
     3417.10102      0.64118554E-052
     3420.83977      0.76687016E-054
     3424.57852      0.14990622E-052
     3428.31727      0.14131029E-050
     3432.05602      0.12226004E-048
     3435.79477      0.97049204E-047
     3439.53352      0.70679926E-045
     3443.27227      0.47227709E-043
     3447.01103      0.28953052E-041
     3450.74978      0.16285028E-039
     3454.48853      0.84038700E-038
     3458.22728      0.39789348E-036
     3461.96603      0.17284269E-034
     3465.70478      0.68886144E-033
     3469.44353      0.25188912E-031
     3473.18228      0.84505238E-030
     3476.92103      0.26010849E-028
     3480.65978      0.73455125E-027
     3484.39853      0.19032084E-025
     3488.13728      0.45242572E-024
     3491.87603      0.98674491E-023
     3495.61478      0.19745093E-021
     3499.35353      0.36250179E-020
     3503.09228      0.61060140E-019
     3506.83103      0.94363082E-018
     3510.56978      0.13379600E-016
     3514.30853      0.17405271E-015
     3518.04728      0.20773762E-014
     3521.78603      0.22748156E-013
     3525.52478      0.22854615E-012
     3529.26353      0.21066787E-011
     3533.00228      0.17816376E-010
     3536.74103      0.13824108E-009
     3540.47978      0.98412793E-009
     3544.21853      0.64278046E-008
     3547.95728      0.38518596E-007
     3551.69603      0.21177511E-006
     3555.43478      0.10682578E-005
     3559.17353      0.49439478E-005
     3562.91228      0.20992704E-004
     3566.65103      0.81782344E-004
     3570.38978      0.29231252E-003
     3574.12854      0.95858791E-003
     3577.86729      0.28841189E-002
     3581.60604      0.79614299E-002
     3585.34479      0.20163490E-001
     3589.08354      0.46852965E-001
     3592.82229      0.99886172E-001
     3596.56104      0.19537589     
     3600.29979      0.35061861     
     3604.03854      0.57729837     
     3607.77729      0.87211775     
     3611.51604       1.2088749     
     3615.25479       1.5377260     
     3618.99354       1.7956883     
     3622.73229       1.9269930     
     3626.47104       1.9055586     
     3630.20979       1.7491946     
     3633.94854       1.5186348     
     3637.68729       1.3019002     
     3641.42604       1.1905048     
     3645.16479       1.2550534     
     3648.90354       1.5251252     
     3652.64229       1.9763414     
     3656.38104       2.5284196     
     3660.11979       3.0591377     
     3663.85854       3.4356408     
     3667.59729       3.5555256     
     3671.33604       3.3813878     
     3675.07479       2.9521593     
     3678.81354       2.3652424     
     3682.55229       1.7387729     
     3686.29104       1.1727879     
     3690.02979      0.72576734     
     3693.76854      0.41207263     
     3697.50730      0.21465817     
     3701.24605      0.10259306     
     3704.98480      0.44986821E-001
     3708.72355      0.18098782E-001
     3712.46230      0.66805169E-002
     3716.20105      0.22623900E-002
     3719.93980      0.70294534E-003
     3723.67855      0.20038828E-003
     3727.41730      0.52410677E-004
     3731.15605      0.12576619E-004
     3734.89480      0.27688836E-005
     3738.63355      0.55929659E-006
     3742.37230      0.10365168E-006
     3746.11105      0.17624109E-007
     3749.84980      0.27493794E-008
     3753.58855      0.39351281E-009
     3757.32730      0.51674912E-010
