  32262.1600     0.93796E-01 
  32294.4222     0.96817E-01 
  32326.6843     0.99904E-01 
  32358.9465     0.10306E+00 
  32391.2086     0.10628E+00 
  32423.4708     0.10957E+00 
  32455.7330     0.11294E+00 
  32487.9951     0.11637E+00 
  32520.2573     0.11988E+00 
  32552.5194     0.12346E+00 
  32584.7816     0.12711E+00 
  32617.0438     0.13085E+00 
  32649.3059     0.13465E+00 
  32681.5681     0.13854E+00 
  32713.8302     0.14251E+00 
  32746.0924     0.14656E+00 
  32778.3546     0.15068E+00 
  32810.6167     0.15490E+00 
  32842.8789     0.15919E+00 
  32875.1410     0.16358E+00 
  32907.4032     0.16805E+00 
  32939.6654     0.17261E+00 
  32971.9275     0.17726E+00 
  33004.1897     0.18200E+00 
  33036.4518     0.18683E+00 
  33068.7140     0.19175E+00 
  33100.9762     0.19678E+00 
  33133.2383     0.20190E+00 
  33165.5005     0.20711E+00 
  33197.7626     0.21243E+00 
  33230.0248     0.21785E+00 
  33262.2870     0.22338E+00 
  33294.5491     0.22901E+00 
  33326.8113     0.23474E+00 
  33359.0734     0.24058E+00 
  33391.3356     0.24654E+00 
  33423.5978     0.25260E+00 
  33455.8599     0.25878E+00 
  33488.1221     0.26507E+00 
  33520.3842     0.27149E+00 
  33552.6464     0.27802E+00 
  33584.9086     0.28467E+00 
  33617.1707     0.29144E+00 
  33649.4329     0.29834E+00 
  33681.6950     0.30536E+00 
  33713.9572     0.31252E+00 
  33746.2194     0.31980E+00 
  33778.4815     0.32722E+00 
  33810.7437     0.33477E+00 
  33843.0058     0.34246E+00 
  33875.2680     0.35029E+00 
  33907.5302     0.35826E+00 
  33939.7923     0.36637E+00 
  33972.0545     0.37463E+00 
  34004.3166     0.38304E+00 
  34036.5788     0.39160E+00 
  34068.8410     0.40031E+00 
  34101.1031     0.40918E+00 
  34133.3653     0.41820E+00 
  34165.6274     0.42739E+00 
  34197.8896     0.43674E+00 
  34230.1518     0.44626E+00 
  34262.4139     0.45594E+00 
  34294.6761     0.46580E+00 
  34326.9382     0.47583E+00 
  34359.2004     0.48604E+00 
  34391.4626     0.49643E+00 
  34423.7247     0.50700E+00 
  34455.9869     0.51776E+00 
  34488.2490     0.52871E+00 
  34520.5112     0.53985E+00 
  34552.7734     0.55118E+00 
  34585.0355     0.56272E+00 
  34617.2977     0.57445E+00 
  34649.5598     0.58639E+00 
  34681.8220     0.59854E+00 
  34714.0842     0.61090E+00 
  34746.3463     0.62348E+00 
  34778.6085     0.63627E+00 
  34810.8706     0.64929E+00 
  34843.1328     0.66254E+00 
  34875.3950     0.67601E+00 
  34907.6571     0.68972E+00 
  34939.9193     0.70367E+00 
  34972.1814     0.71786E+00 
  35004.4436     0.73230E+00 
  35036.7058     0.74698E+00 
  35068.9679     0.76192E+00 
  35101.2301     0.77712E+00 
  35133.4922     0.79259E+00 
  35165.7544     0.80832E+00 
  35198.0166     0.82432E+00 
  35230.2787     0.84060E+00 
  35262.5409     0.85716E+00 
  35294.8030     0.87400E+00 
  35327.0652     0.89114E+00 
  35359.3274     0.90858E+00 
  35391.5895     0.92631E+00 
  35423.8517     0.94435E+00 
  35456.1138     0.96270E+00 
  35488.3760     0.98137E+00 
  35520.6382     0.10004E+01 
  35552.9003     0.10197E+01 
  35585.1625     0.10393E+01 
  35617.4246     0.10593E+01 
  35649.6868     0.10797E+01 
  35681.9490     0.11004E+01 
  35714.2111     0.11214E+01 
  35746.4733     0.11428E+01 
  35778.7354     0.11646E+01 
  35810.9976     0.11868E+01 
  35843.2598     0.12093E+01 
  35875.5219     0.12322E+01 
  35907.7841     0.12555E+01 
  35940.0462     0.12793E+01 
  35972.3084     0.13034E+01 
  36004.5706     0.13280E+01 
  36036.8327     0.13529E+01 
  36069.0949     0.13784E+01 
  36101.3570     0.14042E+01 
  36133.6192     0.14305E+01 
  36165.8814     0.14573E+01 
  36198.1435     0.14845E+01 
  36230.4057     0.15122E+01 
  36262.6678     0.15404E+01 
  36294.9300     0.15690E+01 
  36327.1922     0.15982E+01 
  36359.4543     0.16279E+01 
  36391.7165     0.16581E+01 
  36423.9786     0.16888E+01 
  36456.2408     0.17200E+01 
  36488.5030     0.17518E+01 
  36520.7651     0.17842E+01 
  36553.0273     0.18171E+01 
  36585.2894     0.18506E+01 
  36617.5516     0.18846E+01 
  36649.8138     0.19193E+01 
  36682.0759     0.19546E+01 
  36714.3381     0.19905E+01 
  36746.6002     0.20270E+01 
  36778.8624     0.20642E+01 
  36811.1246     0.21020E+01 
  36843.3867     0.21405E+01 
  36875.6489     0.21796E+01 
  36907.9110     0.22195E+01 
  36940.1732     0.22601E+01 
  36972.4354     0.23013E+01 
  37004.6975     0.23433E+01 
  37036.9597     0.23861E+01 
  37069.2218     0.24296E+01 
  37101.4840     0.24739E+01 
  37133.7462     0.25189E+01 
  37166.0083     0.25648E+01 
  37198.2705     0.26115E+01 
  37230.5326     0.26590E+01 
  37262.7948     0.27074E+01 
  37295.0570     0.27566E+01 
  37327.3191     0.28067E+01 
  37359.5813     0.28577E+01 
  37391.8434     0.29096E+01 
  37424.1056     0.29625E+01 
  37456.3678     0.30163E+01 
  37488.6299     0.30710E+01 
  37520.8921     0.31268E+01 
  37553.1542     0.31835E+01 
  37585.4164     0.32413E+01 
  37617.6786     0.33002E+01 
  37649.9407     0.33601E+01 
  37682.2029     0.34211E+01 
  37714.4650     0.34831E+01 
  37746.7272     0.35464E+01 
  37778.9894     0.36108E+01 
  37811.2515     0.36763E+01 
  37843.5137     0.37431E+01 
  37875.7758     0.38110E+01 
  37908.0380     0.38803E+01 
  37940.3002     0.39507E+01 
  37972.5623     0.40225E+01 
  38004.8245     0.40957E+01 
  38037.0866     0.41701E+01 
  38069.3488     0.42460E+01 
  38101.6110     0.43232E+01 
  38133.8731     0.44019E+01 
  38166.1353     0.44820E+01 
  38198.3974     0.45637E+01 
  38230.6596     0.46468E+01 
  38262.9218     0.47315E+01 
  38295.1839     0.48178E+01 
  38327.4461     0.49057E+01 
  38359.7082     0.49953E+01 
  38391.9704     0.50865E+01 
  38424.2326     0.51795E+01 
  38456.4947     0.52743E+01 
  38488.7569     0.53708E+01 
  38521.0190     0.54691E+01 
  38553.2812     0.55694E+01 
  38585.5434     0.56715E+01 
  38617.8055     0.57756E+01 
  38650.0677     0.58816E+01 
  38682.3298     0.59897E+01 
  38714.5920     0.60999E+01 
  38746.8542     0.62122E+01 
  38779.1163     0.63267E+01 
  38811.3785     0.64433E+01 
  38843.6406     0.65623E+01 
  38875.9028     0.66835E+01 
  38908.1650     0.68071E+01 
  38940.4271     0.69331E+01 
  38972.6893     0.70616E+01 
  39004.9514     0.71926E+01 
  39037.2136     0.73261E+01 
  39069.4758     0.74623E+01 
  39101.7379     0.76012E+01 
  39134.0001     0.77428E+01 
  39166.2622     0.78872E+01 
  39198.5244     0.80344E+01 
  39230.7866     0.81846E+01 
  39263.0487     0.83378E+01 
  39295.3109     0.84941E+01 
  39327.5730     0.86535E+01 
  39359.8352     0.88161E+01 
  39392.0974     0.89819E+01 
  39424.3595     0.91512E+01 
  39456.6217     0.93238E+01 
  39488.8838     0.94999E+01 
  39521.1460     0.96797E+01 
  39553.4082     0.98630E+01 
  39585.6703     0.10050E+02 
  39617.9325     0.10241E+02 
  39650.1946     0.10436E+02 
  39682.4568     0.10635E+02 
  39714.7190     0.10838E+02 
  39746.9811     0.11045E+02 
  39779.2433     0.11257E+02 
  39811.5054     0.11473E+02 
  39843.7676     0.11693E+02 
  39876.0298     0.11918E+02 
  39908.2919     0.12148E+02 
  39940.5541     0.12383E+02 
  39972.8162     0.12622E+02 
  40005.0784     0.12867E+02 
  40037.3406     0.13117E+02 
  40069.6027     0.13372E+02 
  40101.8649     0.13633E+02 
  40134.1270     0.13899E+02 
  40166.3892     0.14171E+02 
  40198.6514     0.14449E+02 
  40230.9135     0.14733E+02 
  40263.1757     0.15023E+02 
  40295.4378     0.15319E+02 
  40327.7000     0.15622E+02 
  40359.9622     0.15932E+02 
  40392.2243     0.16248E+02 
  40424.4865     0.16571E+02 
  40456.7486     0.16902E+02 
  40489.0108     0.17239E+02 
  40521.2730     0.17585E+02 
  40553.5351     0.17938E+02 
  40585.7973     0.18299E+02 
  40618.0594     0.18668E+02 
  40650.3216     0.19045E+02 
  40682.5838     0.19431E+02 
  40714.8459     0.19826E+02 
  40747.1081     0.20229E+02 
  40779.3702     0.20642E+02 
  40811.6324     0.21065E+02 
  40843.8946     0.21497E+02 
  40876.1567     0.21939E+02 
  40908.4189     0.22392E+02 
  40940.6810     0.22855E+02 
  40972.9432     0.23328E+02 
  41005.2054     0.23813E+02 
  41037.4675     0.24310E+02 
  41069.7297     0.24818E+02 
  41101.9918     0.25338E+02 
  41134.2540     0.25871E+02 
  41166.5162     0.26416E+02 
  41198.7783     0.26975E+02 
  41231.0405     0.27547E+02 
  41263.3026     0.28133E+02 
  41295.5648     0.28733E+02 
  41327.8270     0.29348E+02 
  41360.0891     0.29977E+02 
  41392.3513     0.30623E+02 
  41424.6134     0.31284E+02 
  41456.8756     0.31962E+02 
  41489.1378     0.32657E+02 
  41521.3999     0.33369E+02 
  41553.6621     0.34099E+02 
  41585.9242     0.34847E+02 
  41618.1864     0.35614E+02 
  41650.4486     0.36401E+02 
  41682.7107     0.37209E+02 
  41714.9729     0.38037E+02 
  41747.2350     0.38886E+02 
  41779.4972     0.39757E+02 
  41811.7594     0.40651E+02 
  41844.0215     0.41569E+02 
  41876.2837     0.42510E+02 
  41908.5458     0.43477E+02 
  41940.8080     0.44469E+02 
  41973.0702     0.45488E+02 
  42005.3323     0.46534E+02 
  42037.5945     0.47609E+02 
  42069.8566     0.48712E+02 
  42102.1188     0.49846E+02 
  42134.3810     0.51010E+02 
  42166.6431     0.52207E+02 
  42198.9053     0.53437E+02 
  42231.1674     0.54701E+02 
  42263.4296     0.56000E+02 
  42295.6918     0.57336E+02 
  42327.9539     0.58709E+02 
  42360.2161     0.60122E+02 
  42392.4782     0.61575E+02 
  42424.7404     0.63070E+02 
  42457.0026     0.64608E+02 
  42489.2647     0.66191E+02 
  42521.5269     0.67820E+02 
  42553.7890     0.69496E+02 
  42586.0512     0.71223E+02 
  42618.3134     0.73001E+02 
  42650.5755     0.74831E+02 
  42682.8377     0.76718E+02 
  42715.0998     0.78661E+02 
  42747.3620     0.80663E+02 
  42779.6242     0.82727E+02 
  42811.8863     0.84855E+02 
  42844.1485     0.87048E+02 
  42876.4106     0.89310E+02 
  42908.6728     0.91644E+02 
  42940.9350     0.94051E+02 
  42973.1971     0.96535E+02 
  43005.4593     0.99099E+02 
  43037.7214     0.10175E+03 
  43069.9836     0.10448E+03 
  43102.2458     0.10730E+03 
  43134.5079     0.11022E+03 
  43166.7701     0.11323E+03 
  43199.0322     0.11634E+03 
  43231.2944     0.11956E+03 
  43263.5566     0.12289E+03 
  43295.8187     0.12633E+03 
  43328.0809     0.12989E+03 
  43360.3430     0.13357E+03 
  43392.6052     0.13739E+03 
  43424.8674     0.14133E+03 
  43457.1295     0.14542E+03 
  43489.3917     0.14966E+03 
  43521.6538     0.15404E+03 
  43553.9160     0.15859E+03 
  43586.1782     0.16331E+03 
  43618.4403     0.16820E+03 
  43650.7025     0.17327E+03 
  43682.9646     0.17854E+03 
  43715.2268     0.18400E+03 
  43747.4890     0.18968E+03 
  43779.7511     0.19557E+03 
  43812.0133     0.20170E+03 
  43844.2754     0.20807E+03 
  43876.5376     0.21469E+03 
  43908.7998     0.22158E+03 
  43941.0619     0.22875E+03 
  43973.3241     0.23622E+03 
  44005.5862     0.24399E+03 
  44037.8484     0.25209E+03 
  44070.1106     0.26054E+03 
  44102.3727     0.26934E+03 
  44134.6349     0.27853E+03 
  44166.8970     0.28812E+03 
  44199.1592     0.29814E+03 
  44231.4214     0.30860E+03 
  44263.6835     0.31954E+03 
  44295.9457     0.33098E+03 
  44328.2078     0.34296E+03 
  44360.4700     0.35549E+03 
  44392.7322     0.36862E+03 
  44424.9943     0.38239E+03 
  44457.2565     0.39682E+03 
  44489.5186     0.41197E+03 
  44521.7808     0.42788E+03 
  44554.0430     0.44460E+03 
  44586.3051     0.46218E+03 
  44618.5673     0.48068E+03 
  44650.8294     0.50016E+03 
  44683.0916     0.52069E+03 
  44715.3538     0.54234E+03 
  44747.6159     0.56519E+03 
  44779.8781     0.58933E+03 
  44812.1402     0.61485E+03 
  44844.4024     0.64185E+03 
  44876.6646     0.67046E+03 
  44908.9267     0.70078E+03 
  44941.1889     0.73297E+03 
  44973.4510     0.76715E+03 
  45005.7132     0.80351E+03 
  45037.9754     0.84222E+03 
  45070.2375     0.88347E+03 
  45102.4997     0.92750E+03 
  45134.7618     0.97453E+03 
  45167.0240     0.10249E+04 
  45199.2862     0.10788E+04 
  45231.5483     0.11366E+04 
  45263.8105     0.11987E+04 
  45296.0726     0.12656E+04 
  45328.3348     0.13376E+04 
  45360.5970     0.14153E+04 
  45392.8591     0.14994E+04 
  45425.1213     0.15904E+04 
  45457.3834     0.16891E+04 
  45489.6456     0.17964E+04 
  45521.9078     0.19132E+04 
  45554.1699     0.20406E+04 
  45586.4321     0.21798E+04 
  45618.6942     0.23323E+04 
  45650.9564     0.24994E+04 
  45683.2186     0.26830E+04 
  45715.4807     0.28851E+04 
  45747.7429     0.31077E+04 
  45780.0050     0.33531E+04 
  45812.2672     0.36239E+04 
  45844.5294     0.39226E+04 
  45876.7915     0.42517E+04 
  45909.0537     0.46137E+04 
  45941.3158     0.50100E+04 
  45973.5780     0.54415E+04 
  46005.8402     0.59070E+04 
  46038.1023     0.64024E+04 
  46070.3645     0.69202E+04 
  46102.6266     0.74474E+04 
  46134.8888     0.79649E+04 
  46167.1510     0.84473E+04 
  46199.4131     0.88637E+04 
  46231.6753     0.91811E+04 
  46263.9374     0.93687E+04 
  46296.1996     0.94034E+04 
  46328.4618     0.92748E+04 
  46360.7239     0.89869E+04 
  46392.9861     0.85562E+04 
  46425.2482     0.80082E+04 
  46457.5104     0.73719E+04 
  46489.7726     0.66761E+04 
  46522.0347     0.59467E+04 
  46554.2969     0.52060E+04 
  46586.5590     0.44736E+04 
  46618.8212     0.37677E+04 
  46651.0834     0.31070E+04 
  46683.3455     0.25125E+04 
  46715.6077     0.20076E+04 
  46747.8698     0.16169E+04 
  46780.1320     0.13623E+04 
  46812.3942     0.12591E+04 
  46844.6563     0.13114E+04 
  46876.9185     0.15100E+04 
  46909.1806     0.18335E+04 
  46941.4428     0.22500E+04 
  46973.7050     0.27208E+04 
  47005.9671     0.32046E+04 
  47038.2293     0.36620E+04 
  47070.4914     0.40611E+04 
  47102.7536     0.43816E+04 
  47135.0158     0.46180E+04 
  47167.2779     0.47791E+04 
  47199.5401     0.48847E+04 
  47231.8022     0.49600E+04 
  47264.0644     0.50303E+04 
  47296.3266     0.51175E+04 
  47328.5887     0.52388E+04 
  47360.8509     0.54079E+04 
  47393.1130     0.56373E+04 
  47425.3752     0.59408E+04 
  47457.6374     0.63359E+04 
  47489.8995     0.68446E+04 
  47522.1617     0.74940E+04 
  47554.4238     0.83132E+04 
  47586.6860     0.93293E+04 
  47618.9482     0.10560E+05 
  47651.2103     0.12006E+05 
  47683.4725     0.13645E+05 
  47715.7346     0.15429E+05 
  47747.9968     0.17280E+05 
  47780.2590     0.19102E+05 
  47812.5211     0.20787E+05 
  47844.7833     0.22231E+05 
  47877.0454     0.23348E+05 
  47909.3076     0.24080E+05 
  47941.5698     0.24405E+05 
  47973.8319     0.24330E+05 
  48006.0941     0.23887E+05 
  48038.3562     0.23121E+05 
  48070.6184     0.22079E+05 
  48102.8806     0.20804E+05 
  48135.1427     0.19336E+05 
  48167.4049     0.17710E+05 
  48199.6670     0.15961E+05 
  48231.9292     0.14130E+05 
  48264.1914     0.12271E+05 
  48296.4535     0.10446E+05 
  48328.7157     0.87296E+04 
  48360.9778     0.71949E+04 
  48393.2400     0.59083E+04 
  48425.5022     0.49194E+04 
  48457.7643     0.42554E+04 
  48490.0265     0.39180E+04 
  48522.2886     0.38828E+04 
  48554.5508     0.41014E+04 
  48586.8130     0.45063E+04 
  48619.0751     0.50193E+04 
  48651.3373     0.55624E+04 
  48683.5994     0.60689E+04 
  48715.8616     0.64916E+04 
  48748.1238     0.68057E+04 
  48780.3859     0.70064E+04 
  48812.6481     0.71025E+04 
  48844.9102     0.71097E+04 
  48877.1724     0.70455E+04 
  48909.4346     0.69263E+04 
  48941.6967     0.67675E+04 
  48973.9589     0.65849E+04 
  49006.2210     0.63974E+04 
  49038.4832     0.62300E+04 
  49070.7454     0.61159E+04 
  49103.0075     0.60973E+04 
  49135.2697     0.62231E+04 
  49167.5318     0.65440E+04 
  49199.7940     0.71047E+04 
  49232.0562     0.79355E+04 
  49264.3183     0.90444E+04 
  49296.5805     0.10412E+05 
  49328.8426     0.11992E+05 
  49361.1048     0.13710E+05 
  49393.3670     0.15477E+05 
  49425.6291     0.17197E+05 
  49457.8913     0.18781E+05 
  49490.1534     0.20159E+05 
  49522.4156     0.21280E+05 
  49554.6778     0.22118E+05 
  49586.9399     0.22664E+05 
  49619.2021     0.22920E+05 
  49651.4642     0.22893E+05 
  49683.7264     0.22593E+05 
  49715.9886     0.22029E+05 
  49748.2507     0.21214E+05 
  49780.5129     0.20167E+05 
  49812.7750     0.18919E+05 
  49845.0372     0.17512E+05 
  49877.2994     0.16001E+05 
  49909.5615     0.14451E+05 
  49941.8237     0.12931E+05 
  49974.0858     0.11510E+05 
  50006.3480     0.10249E+05 
  50038.6102     0.91965E+04 
  50070.8723     0.83834E+04 
  50103.1345     0.78202E+04 
  50135.3966     0.74952E+04 
  50167.6588     0.73760E+04 
  50199.9210     0.74159E+04 
  50232.1831     0.75620E+04 
  50264.4453     0.77632E+04 
  50296.7074     0.79770E+04 
  50328.9696     0.81721E+04 
  50361.2318     0.83280E+04 
  50393.4939     0.84322E+04 
  50425.7561     0.84778E+04 
  50458.0182     0.84607E+04 
  50490.2804     0.83788E+04 
  50522.5426     0.82316E+04 
  50554.8047     0.80215E+04 
  50587.0669     0.77542E+04 
  50619.3290     0.74413E+04 
  50651.5912     0.71011E+04 
  50683.8534     0.67593E+04 
  50716.1155     0.64482E+04 
  50748.3777     0.62037E+04 
  50780.6398     0.60617E+04 
  50812.9020     0.60532E+04 
  50845.1642     0.61999E+04 
  50877.4263     0.65106E+04 
  50909.6885     0.69787E+04 
  50941.9506     0.75835E+04 
  50974.2128     0.82922E+04 
  51006.4750     0.90651E+04 
  51038.7371     0.98613E+04 
  51070.9993     0.10643E+05 
  51103.2614     0.11380E+05 
  51135.5236     0.12046E+05 
  51167.7858     0.12622E+05 
  51200.0479     0.13093E+05 
  51232.3101     0.13445E+05 
  51264.5722     0.13669E+05 
  51296.8344     0.13755E+05 
  51329.0966     0.13700E+05 
  51361.3587     0.13505E+05 
  51393.6209     0.13177E+05 
  51425.8830     0.12730E+05 
  51458.1452     0.12186E+05 
  51490.4074     0.11569E+05 
  51522.6695     0.10912E+05 
  51554.9317     0.10245E+05 
  51587.1938     0.96014E+04 
  51619.4560     0.90101E+04 
  51651.7182     0.84938E+04 
  51683.9803     0.80670E+04 
  51716.2425     0.77341E+04 
  51748.5046     0.74907E+04 
  51780.7668     0.73253E+04 
  51813.0290     0.72228E+04 
  51845.2911     0.71669E+04 
  51877.5533     0.71426E+04 
  51909.8154     0.71367E+04 
  51942.0776     0.71381E+04 
  51974.3398     0.71375E+04 
  52006.6019     0.71266E+04 
  52038.8641     0.70982E+04 
  52071.1262     0.70462E+04 
  52103.3884     0.69655E+04 
  52135.6506     0.68529E+04 
  52167.9127     0.67073E+04 
  52200.1749     0.65302E+04 
  52232.4370     0.63264E+04 
  52264.6992     0.61042E+04 
  52296.9614     0.58749E+04 
  52329.2235     0.56521E+04 
  52361.4857     0.54504E+04 
  52393.7478     0.52840E+04 
  52426.0100     0.51646E+04 
  52458.2722     0.50999E+04 
  52490.5343     0.50931E+04 
  52522.7965     0.51423E+04 
  52555.0586     0.52413E+04 
  52587.3208     0.53813E+04 
  52619.5830     0.55521E+04 
  52651.8451     0.57432E+04 
  52684.1073     0.59446E+04 
  52716.3694     0.61470E+04 
  52748.6316     0.63416E+04 
  52780.8938     0.65199E+04 
  52813.1559     0.66740E+04 
  52845.4181     0.67966E+04 
  52877.6802     0.68820E+04 
  52909.9424     0.69255E+04 
  52942.2046     0.69247E+04 
  52974.4667     0.68791E+04 
  53006.7289     0.67904E+04 
  53038.9910     0.66624E+04 
  53071.2532     0.65012E+04 
  53103.5154     0.63147E+04 
  53135.7775     0.61121E+04 
  53168.0397     0.59032E+04 
  53200.3018     0.56974E+04 
  53232.5640     0.55028E+04 
  53264.8262     0.53250E+04 
  53297.0883     0.51675E+04 
  53329.3505     0.50314E+04 
  53361.6126     0.49159E+04 
  53393.8748     0.48193E+04 
  53426.1370     0.47391E+04 
  53458.3991     0.46725E+04 
  53490.6613     0.46167E+04 
  53522.9234     0.45686E+04 
  53555.1856     0.45253E+04 
  53587.4478     0.44836E+04 
  53619.7099     0.44407E+04 
  53651.9721     0.43938E+04 
  53684.2342     0.43407E+04 
  53716.4964     0.42796E+04 
  53748.7586     0.42092E+04 
  53781.0207     0.41293E+04 
  53813.2829     0.40403E+04 
  53845.5450     0.39440E+04 
  53877.8072     0.38429E+04 
  53910.0694     0.37402E+04 
  53942.3315     0.36399E+04 
  53974.5937     0.35457E+04 
  54006.8558     0.34609E+04 
  54039.1180     0.33882E+04 
  54071.3802     0.33290E+04 
  54103.6423     0.32838E+04 
  54135.9045     0.32521E+04 
  54168.1666     0.32329E+04 
  54200.4288     0.32247E+04 
  54232.6910     0.32256E+04 
  54264.9531     0.32338E+04 
  54297.2153     0.32471E+04 
  54329.4774     0.32632E+04 
  54361.7396     0.32796E+04 
  54394.0018     0.32941E+04 
  54426.2639     0.33045E+04 
  54458.5261     0.33089E+04 
  54490.7882     0.33056E+04 
  54523.0504     0.32936E+04 
  54555.3126     0.32721E+04 
  54587.5747     0.32410E+04 
  54619.8369     0.32004E+04 
  54652.0990     0.31514E+04 
  54684.3612     0.30954E+04 
  54716.6234     0.30342E+04 
  54748.8855     0.29698E+04 
  54781.1477     0.29043E+04 
  54813.4098     0.28393E+04 
  54845.6720     0.27762E+04 
  54877.9342     0.27160E+04 
  54910.1963     0.26593E+04 
  54942.4585     0.26064E+04 
  54974.7206     0.25575E+04 
  55006.9828     0.25123E+04 
  55039.2450     0.24707E+04 
  55071.5071     0.24322E+04 
  55103.7693     0.23963E+04 
  55136.0314     0.23623E+04 
  55168.2936     0.23297E+04 
  55200.5558     0.22976E+04 
  55232.8179     0.22655E+04 
  55265.0801     0.22328E+04 
  55297.3422     0.21990E+04 
  55329.6044     0.21637E+04 
  55361.8666     0.21267E+04 
  55394.1287     0.20881E+04 
  55426.3909     0.20480E+04 
  55458.6530     0.20070E+04 
  55490.9152     0.19656E+04 
  55523.1774     0.19245E+04 
  55555.4395     0.18844E+04 
  55587.7017     0.18460E+04 
  55619.9638     0.18098E+04 
  55652.2260     0.17761E+04 
  55684.4882     0.17451E+04 
  55716.7503     0.17169E+04 
  55749.0125     0.16915E+04 
  55781.2746     0.16687E+04 
  55813.5368     0.16483E+04 
  55845.7990     0.16301E+04 
  55878.0611     0.16136E+04 
  55910.3233     0.15983E+04 
  55942.5854     0.15840E+04 
  55974.8476     0.15700E+04 
  56007.1098     0.15559E+04 
  56039.3719     0.15415E+04 
  56071.6341     0.15262E+04 
  56103.8962     0.15098E+04 
  56136.1584     0.14921E+04 
  56168.4206     0.14730E+04 
  56200.6827     0.14525E+04 
  56232.9449     0.14307E+04 
  56265.2070     0.14077E+04 
  56297.4692     0.13839E+04 
  56329.7314     0.13596E+04 
  56361.9935     0.13351E+04 
  56394.2557     0.13106E+04 
  56426.5178     0.12864E+04 
  56458.7800     0.12626E+04 
  56491.0422     0.12395E+04 
  56523.3043     0.12170E+04 
  56555.5665     0.11954E+04 
  56587.8286     0.11745E+04 
  56620.0908     0.11545E+04 
  56652.3530     0.11352E+04 
  56684.6151     0.11165E+04 
  56716.8773     0.10985E+04 
  56749.1394     0.10809E+04 
  56781.4016     0.10636E+04 
  56813.6638     0.10466E+04 
  56845.9259     0.10297E+04 
  56878.1881     0.10128E+04 
  56910.4502     0.99594E+03 
  56942.7124     0.97897E+03 
  56974.9746     0.96192E+03 
  57007.2367     0.94481E+03 
  57039.4989     0.92772E+03 
  57071.7610     0.91072E+03 
  57104.0232     0.89392E+03 
  57136.2854     0.87741E+03 
  57168.5475     0.86129E+03 
  57200.8097     0.84563E+03 
  57233.0718     0.83047E+03 
  57265.3340     0.81588E+03 
  57297.5962     0.80187E+03 
  57329.8583     0.78845E+03 
  57362.1205     0.77561E+03 
  57394.3826     0.76332E+03 
  57426.6448     0.75155E+03 
  57458.9070     0.74023E+03 
  57491.1691     0.72929E+03 
  57523.4313     0.71868E+03 
  57555.6934     0.70830E+03 
  57587.9556     0.69811E+03 
  57620.2178     0.68802E+03 
  57652.4799     0.67798E+03 
  57684.7421     0.66794E+03 
  57717.0042     0.65785E+03 
  57749.2664     0.64769E+03 
  57781.5286     0.63746E+03 
  57813.7907     0.62718E+03 
  57846.0529     0.61686E+03 
  57878.3150     0.60653E+03 
  57910.5772     0.59624E+03 
  57942.8394     0.58601E+03 
  57975.1015     0.57589E+03 
  58007.3637     0.56589E+03 
  58039.6258     0.55606E+03 
  58071.8880     0.54641E+03 
  58104.1502     0.53695E+03 
  58136.4123     0.52771E+03 
  58168.6745     0.51868E+03 
  58200.9366     0.50986E+03 
  58233.1988     0.50125E+03 
  58265.4610     0.49284E+03 
  58297.7231     0.48460E+03 
  58329.9853     0.47653E+03 
  58362.2474     0.46861E+03 
  58394.5096     0.46082E+03 
  58426.7718     0.45315E+03 
  58459.0339     0.44557E+03 
  58491.2961     0.43808E+03 
  58523.5582     0.43068E+03 
  58555.8204     0.42335E+03 
  58588.0826     0.41611E+03 
  58620.3447     0.40896E+03 
  58652.6069     0.40191E+03 
  58684.8690     0.39497E+03 
  58717.1312     0.38815E+03 
  58749.3934     0.38146E+03 
  58781.6555     0.37491E+03 
  58813.9177     0.36851E+03 
  58846.1798     0.36226E+03 
  58878.4420     0.35616E+03 
  58910.7042     0.35021E+03 
  58942.9663     0.34442E+03 
  58975.2285     0.33877E+03 
  59007.4906     0.33326E+03 
  59039.7528     0.32788E+03 
  59072.0150     0.32263E+03 
  59104.2771     0.31748E+03 
  59136.5393     0.31244E+03 
  59168.8014     0.30748E+03 
  59201.0636     0.30261E+03 
  59233.3258     0.29780E+03 
  59265.5879     0.29306E+03 
  59297.8501     0.28837E+03 
  59330.1122     0.28374E+03 
  59362.3744     0.27915E+03 
  59394.6366     0.27462E+03 
  59426.8987     0.27014E+03 
  59459.1609     0.26572E+03 
  59491.4230     0.26136E+03 
  59523.6852     0.25706E+03 
  59555.9474     0.25283E+03 
  59588.2095     0.24866E+03 
  59620.4717     0.24456E+03 
  59652.7338     0.24054E+03 
  59684.9960     0.23659E+03 
  59717.2582     0.23271E+03 
  59749.5203     0.22891E+03 
  59781.7825     0.22518E+03 
  59814.0446     0.22152E+03 
  59846.3068     0.21793E+03 
  59878.5690     0.21441E+03 
  59910.8311     0.21096E+03 
  59943.0933     0.20756E+03 
  59975.3554     0.20422E+03 
  60007.6176     0.20094E+03 
  60039.8798     0.19771E+03 
  60072.1419     0.19453E+03 
  60104.4041     0.19140E+03 
  60136.6662     0.18832E+03 
  60168.9284     0.18529E+03 
  60201.1906     0.18231E+03 
  60233.4527     0.17938E+03 
  60265.7149     0.17650E+03 
  60297.9770     0.17367E+03 
  60330.2392     0.17089E+03 
  60362.5014     0.16816E+03 
  60394.7635     0.16548E+03 
  60427.0257     0.16285E+03 
  60459.2878     0.16028E+03 
  60491.5500     0.15776E+03 
  60523.8122     0.15528E+03 
  60556.0743     0.15285E+03 
  60588.3365     0.15047E+03 
  60620.5986     0.14814E+03 
  60652.8608     0.14585E+03 
  60685.1230     0.14360E+03 
  60717.3851     0.14139E+03 
  60749.6473     0.13922E+03 
  60781.9094     0.13708E+03 
  60814.1716     0.13498E+03 
  60846.4338     0.13291E+03 
  60878.6959     0.13088E+03 
  60910.9581     0.12887E+03 
  60943.2202     0.12690E+03 
  60975.4824     0.12496E+03 
  61007.7446     0.12305E+03 
  61040.0067     0.12116E+03 
  61072.2689     0.11931E+03 
  61104.5310     0.11749E+03 
  61136.7932     0.11570E+03 
  61169.0554     0.11394E+03 
  61201.3175     0.11221E+03 
  61233.5797     0.11050E+03 
  61265.8418     0.10883E+03 
  61298.1040     0.10719E+03 
  61330.3662     0.10557E+03 
  61362.6283     0.10398E+03 
  61394.8905     0.10242E+03 
  61427.1526     0.10089E+03 
  61459.4148     0.99379E+02 
  61491.6770     0.97897E+02 
  61523.9391     0.96439E+02 
  61556.2013     0.95006E+02 
  61588.4634     0.93596E+02 
  61620.7256     0.92209E+02 
  61652.9878     0.90844E+02 
  61685.2499     0.89502E+02 
  61717.5121     0.88181E+02 
  61749.7742     0.86882E+02 
  61782.0364     0.85604E+02 
  61814.2986     0.84347E+02 
  61846.5607     0.83111E+02 
  61878.8229     0.81895E+02 
  61911.0850     0.80700E+02 
  61943.3472     0.79524E+02 
  61975.6094     0.78368E+02 
  62007.8715     0.77232E+02 
  62040.1337     0.76114E+02 
  62072.3958     0.75016E+02 
  62104.6580     0.73936E+02 
  62136.9202     0.72874E+02 
  62169.1823     0.71830E+02 
  62201.4445     0.70803E+02 
  62233.7066     0.69792E+02 
  62265.9688     0.68798E+02 
  62298.2310     0.67820E+02 
  62330.4931     0.66858E+02 
  62362.7553     0.65911E+02 
  62395.0174     0.64978E+02 
  62427.2796     0.64061E+02 
  62459.5418     0.63157E+02 
  62491.8039     0.62267E+02 
  62524.0661     0.61391E+02 
  62556.3282     0.60529E+02 
  62588.5904     0.59680E+02 
  62620.8526     0.58844E+02 
  62653.1147     0.58020E+02 
  62685.3769     0.57210E+02 
  62717.6390     0.56412E+02 
  62749.9012     0.55626E+02 
  62782.1634     0.54853E+02 
  62814.4255     0.54091E+02 
  62846.6877     0.53342E+02 
  62878.9498     0.52604E+02 
  62911.2120     0.51877E+02 
  62943.4742     0.51162E+02 
  62975.7363     0.50457E+02 
  63007.9985     0.49763E+02 
  63040.2606     0.49080E+02 
  63072.5228     0.48407E+02 
  63104.7850     0.47745E+02 
  63137.0471     0.47092E+02 
  63169.3093     0.46449E+02 
  63201.5714     0.45816E+02 
  63233.8336     0.45192E+02 
  63266.0958     0.44578E+02 
  63298.3579     0.43972E+02 
  63330.6201     0.43376E+02 
  63362.8822     0.42788E+02 
  63395.1444     0.42209E+02 
  63427.4066     0.41639E+02 
  63459.6687     0.41077E+02 
  63491.9309     0.40523E+02 
  63524.1930     0.39977E+02 
  63556.4552     0.39440E+02 
  63588.7174     0.38910E+02 
  63620.9795     0.38388E+02 
  63653.2417     0.37874E+02 
  63685.5038     0.37367E+02 
  63717.7660     0.36867E+02 
  63750.0282     0.36375E+02 
  63782.2903     0.35890E+02 
  63814.5525     0.35412E+02 
  63846.8146     0.34940E+02 
  63879.0768     0.34475E+02 
  63911.3390     0.34017E+02 
  63943.6011     0.33565E+02 
  63975.8633     0.33119E+02 
  64008.1254     0.32680E+02 
  64040.3876     0.32247E+02 
  64072.6498     0.31820E+02 
  64104.9119     0.31398E+02 
  64137.1741     0.30983E+02 
  64169.4362     0.30573E+02 
  64201.6984     0.30169E+02 
  64233.9606     0.29770E+02 
  64266.2227     0.29377E+02 
  64298.4849     0.28989E+02 
  64330.7470     0.28607E+02 
  64363.0092     0.28229E+02 
  64395.2714     0.27857E+02 
  64427.5335     0.27490E+02 
  64459.7957     0.27127E+02 
  64492.0578     0.26770E+02 
  64524.3200     0.26417E+02 
  64556.5822     0.26069E+02 
  64588.8443     0.25726E+02 
  64621.1065     0.25387E+02 
  64653.3686     0.25053E+02 
  64685.6308     0.24723E+02 
  64717.8930     0.24398E+02 
  64750.1551     0.24076E+02 
  64782.4173     0.23759E+02 
  64814.6794     0.23446E+02 
  64846.9416     0.23138E+02 
  64879.2038     0.22833E+02 
  64911.4659     0.22532E+02 
  64943.7281     0.22235E+02 
  64975.9902     0.21941E+02 
  65008.2524     0.21652E+02 
  65040.5146     0.21366E+02 
  65072.7767     0.21084E+02 
  65105.0389     0.20805E+02 
  65137.3010     0.20530E+02 
  65169.5632     0.20259E+02 
  65201.8254     0.19991E+02 
  65234.0875     0.19726E+02 
  65266.3497     0.19465E+02 
  65298.6118     0.19207E+02 
  65330.8740     0.18952E+02 
  65363.1362     0.18700E+02 
  65395.3983     0.18451E+02 
  65427.6605     0.18206E+02 
  65459.9226     0.17963E+02 
  65492.1848     0.17724E+02 
  65524.4470     0.17487E+02 
  65556.7091     0.17253E+02 
  65588.9713     0.17022E+02 
  65621.2334     0.16794E+02 
  65653.4956     0.16569E+02 
  65685.7578     0.16346E+02 
  65718.0199     0.16126E+02 
  65750.2821     0.15909E+02 
  65782.5442     0.15694E+02 
  65814.8064     0.15482E+02 
  65847.0686     0.15273E+02 
  65879.3307     0.15066E+02 
  65911.5929     0.14861E+02 
  65943.8550     0.14659E+02 
  65976.1172     0.14459E+02 
  66008.3794     0.14262E+02 
  66040.6415     0.14067E+02 
  66072.9037     0.13874E+02 
  66105.1658     0.13683E+02 
  66137.4280     0.13495E+02 
  66169.6902     0.13309E+02 
  66201.9523     0.13125E+02 
  66234.2145     0.12943E+02 
  66266.4766     0.12763E+02 
  66298.7388     0.12586E+02 
  66331.0010     0.12410E+02 
  66363.2631     0.12237E+02 
  66395.5253     0.12065E+02 
  66427.7874     0.11896E+02 
  66460.0496     0.11728E+02 
  66492.3118     0.11562E+02 
  66524.5739     0.11399E+02 
  66556.8361     0.11237E+02 
  66589.0982     0.11077E+02 
  66621.3604     0.10918E+02 
  66653.6226     0.10762E+02 
  66685.8847     0.10607E+02 
  66718.1469     0.10454E+02 
  66750.4090     0.10303E+02 
  66782.6712     0.10154E+02 
  66814.9334     0.10006E+02 
  66847.1955     0.98596E+01 
  66879.4577     0.97151E+01 
  66911.7198     0.95722E+01 
  66943.9820     0.94310E+01 
  66976.2442     0.92913E+01 
  67008.5063     0.91531E+01 
  67040.7685     0.90166E+01 
  67073.0306     0.88815E+01 
  67105.2928     0.87480E+01 
  67137.5550     0.86159E+01 
  67169.8171     0.84853E+01 
  67202.0793     0.83562E+01 
  67234.3414     0.82285E+01 
  67266.6036     0.81022E+01 
  67298.8658     0.79773E+01 
  67331.1279     0.78538E+01 
  67363.3901     0.77317E+01 
  67395.6522     0.76110E+01 
  67427.9144     0.74916E+01 
  67460.1766     0.73735E+01 
  67492.4387     0.72567E+01 
  67524.7009     0.71412E+01 
  67556.9630     0.70270E+01 
  67589.2252     0.69141E+01 
  67621.4874     0.68024E+01 
  67653.7495     0.66920E+01 
  67686.0117     0.65828E+01 
  67718.2738     0.64748E+01 
  67750.5360     0.63680E+01 
  67782.7982     0.62624E+01 
  67815.0603     0.61580E+01 
  67847.3225     0.60547E+01 
  67879.5846     0.59526E+01 
  67911.8468     0.58517E+01 
  67944.1090     0.57519E+01 
  67976.3711     0.56531E+01 
  68008.6333     0.55555E+01 
  68040.8954     0.54590E+01 
  68073.1576     0.53636E+01 
  68105.4198     0.52693E+01 
  68137.6819     0.51760E+01 
  68169.9441     0.50838E+01 
  68202.2062     0.49926E+01 
  68234.4684     0.49024E+01 
  68266.7306     0.48133E+01 
  68298.9927     0.47252E+01 
  68331.2549     0.46381E+01 
  68363.5170     0.45520E+01 
  68395.7792     0.44669E+01 
  68428.0414     0.43828E+01 
  68460.3035     0.42997E+01 
  68492.5657     0.42175E+01 
  68524.8278     0.41363E+01 
  68557.0900     0.40560E+01 
  68589.3522     0.39767E+01 
  68621.6143     0.38983E+01 
  68653.8765     0.38208E+01 
  68686.1386     0.37442E+01 
  68718.4008     0.36686E+01 
  68750.6630     0.35939E+01 
  68782.9251     0.35200E+01 
  68815.1873     0.34471E+01 
  68847.4494     0.33750E+01 
  68879.7116     0.33038E+01 
  68911.9738     0.32335E+01 
  68944.2359     0.31640E+01 
  68976.4981     0.30955E+01 
  69008.7602     0.30277E+01 
  69041.0224     0.29608E+01 
  69073.2846     0.28948E+01 
  69105.5467     0.28296E+01 
  69137.8089     0.27652E+01 
  69170.0710     0.27017E+01 
  69202.3332     0.26389E+01 
  69234.5954     0.25770E+01 
  69266.8575     0.25159E+01 
  69299.1197     0.24556E+01 
  69331.3818     0.23962E+01 
  69363.6440     0.23375E+01 
  69395.9062     0.22796E+01 
  69428.1683     0.22225E+01 
  69460.4305     0.21662E+01 
  69492.6926     0.21106E+01 
  69524.9548     0.20559E+01 
  69557.2170     0.20019E+01 
  69589.4791     0.19487E+01 
  69621.7413     0.18962E+01 
  69654.0034     0.18445E+01 
  69686.2656     0.17936E+01 
  69718.5278     0.17435E+01 
  69750.7899     0.16941E+01 
  69783.0521     0.16454E+01 
  69815.3142     0.15975E+01 
  69847.5764     0.15503E+01 
  69879.8386     0.15039E+01 
  69912.1007     0.14582E+01 
  69944.3629     0.14133E+01 
  69976.6250     0.13691E+01 
  70008.8872     0.13256E+01 
  70041.1494     0.12829E+01 
  70073.4115     0.12409E+01 
  70105.6737     0.11996E+01 
  70137.9358     0.11590E+01 
  70170.1980     0.11192E+01 
  70202.4602     0.10801E+01 
  70234.7223     0.10417E+01 
  70266.9845     0.10041E+01 
  70299.2466     0.96714E+00 
  70331.5088     0.93091E+00 
  70363.7710     0.89541E+00 
  70396.0331     0.86062E+00 
  70428.2953     0.82655E+00 
  70460.5574     0.79319E+00 
  70492.8196     0.76054E+00 
  70525.0818     0.72861E+00 
  70557.3439     0.69739E+00 
  70589.6061     0.66689E+00 
  70621.8682     0.63709E+00 
  70654.1304     0.60801E+00 
  70686.3926     0.57965E+00 
  70718.6547     0.55199E+00 
  70750.9169     0.52505E+00 
  70783.1790     0.49882E+00 
  70815.4412     0.47330E+00 
  70847.7034     0.44850E+00 
  70879.9655     0.42441E+00 
  70912.2277     0.40104E+00 
  70944.4898     0.37838E+00 
  70976.7520     0.35644E+00 
  71009.0142     0.33522E+00 
  71041.2763     0.31472E+00 
  71073.5385     0.29493E+00 
  71105.8006     0.27587E+00 
  71138.0628     0.25753E+00 
  71170.3250     0.23991E+00 
  71202.5871     0.22302E+00 
  71234.8493     0.20686E+00 
  71267.1114     0.19142E+00 
  71299.3736     0.17672E+00 
  71331.6358     0.16275E+00 
  71363.8979     0.14951E+00 
  71396.1601     0.13701E+00 
  71428.4222     0.12526E+00 
  71460.6844     0.11424E+00 
  71492.9466     0.10397E+00 
  71525.2087     0.94440E-01 
  71557.4709     0.85665E-01 
  71589.7330     0.77641E-01 
  71621.9952     0.70374E-01 
  71654.2574     0.63864E-01 
  71686.5195     0.58117E-01 
  71718.7817     0.53134E-01 
  71751.0438     0.48920E-01 
  71783.3060     0.45478E-01 
  71815.5682     0.42811E-01 
  71847.8303     0.40923E-01 
  71880.0925     0.39818E-01 
  71912.3546     0.39500E-01 
  71944.6168     0.39973E-01 
  71976.8790     0.41241E-01 
  72009.1411     0.43309E-01 
  72041.4033     0.46180E-01 
  72073.6654     0.49859E-01 
  72105.9276     0.54351E-01 
  72138.1898     0.59661E-01 
  72170.4519     0.65794E-01 
  72202.7141     0.72754E-01 
  72234.9762     0.80547E-01 
  72267.2384     0.89177E-01 
  72299.5006     0.98651E-01 
  72331.7627     0.10897E+00 
  72364.0249     0.12015E+00 
  72396.2870     0.13219E+00 
  72428.5492     0.14509E+00 
  72460.8114     0.15887E+00 
  72493.0735     0.17352E+00 
  72525.3357     0.18906E+00 
  72557.5978     0.20549E+00 
  72589.8600     0.22281E+00 
