  32262.1600     0.17850E-05 
  32294.4222     0.19252E-05 
  32326.6843     0.20722E-05 
  32358.9465     0.22260E-05 
  32391.2086     0.23869E-05 
  32423.4708     0.25548E-05 
  32455.7330     0.27299E-05 
  32487.9951     0.29122E-05 
  32520.2573     0.31020E-05 
  32552.5194     0.32992E-05 
  32584.7816     0.35040E-05 
  32617.0438     0.37164E-05 
  32649.3059     0.39367E-05 
  32681.5681     0.41648E-05 
  32713.8302     0.44009E-05 
  32746.0924     0.46451E-05 
  32778.3546     0.48976E-05 
  32810.6167     0.51584E-05 
  32842.8789     0.54276E-05 
  32875.1410     0.57054E-05 
  32907.4032     0.59918E-05 
  32939.6654     0.62871E-05 
  32971.9275     0.65913E-05 
  33004.1897     0.69045E-05 
  33036.4518     0.72270E-05 
  33068.7140     0.75587E-05 
  33100.9762     0.78998E-05 
  33133.2383     0.82506E-05 
  33165.5005     0.86110E-05 
  33197.7626     0.89812E-05 
  33230.0248     0.93615E-05 
  33262.2870     0.97518E-05 
  33294.5491     0.10152E-04 
  33326.8113     0.10563E-04 
  33359.0734     0.10985E-04 
  33391.3356     0.11417E-04 
  33423.5978     0.11860E-04 
  33455.8599     0.12315E-04 
  33488.1221     0.12780E-04 
  33520.3842     0.13257E-04 
  33552.6464     0.13745E-04 
  33584.9086     0.14245E-04 
  33617.1707     0.14756E-04 
  33649.4329     0.15280E-04 
  33681.6950     0.15815E-04 
  33713.9572     0.16364E-04 
  33746.2194     0.16924E-04 
  33778.4815     0.17498E-04 
  33810.7437     0.18084E-04 
  33843.0058     0.18683E-04 
  33875.2680     0.19295E-04 
  33907.5302     0.19921E-04 
  33939.7923     0.20561E-04 
  33972.0545     0.21215E-04 
  34004.3166     0.21882E-04 
  34036.5788     0.22564E-04 
  34068.8410     0.23260E-04 
  34101.1031     0.23971E-04 
  34133.3653     0.24697E-04 
  34165.6274     0.25438E-04 
  34197.8896     0.26194E-04 
  34230.1518     0.26965E-04 
  34262.4139     0.27753E-04 
  34294.6761     0.28557E-04 
  34326.9382     0.29376E-04 
  34359.2004     0.30213E-04 
  34391.4626     0.31066E-04 
  34423.7247     0.31936E-04 
  34455.9869     0.32823E-04 
  34488.2490     0.33727E-04 
  34520.5112     0.34650E-04 
  34552.7734     0.35590E-04 
  34585.0355     0.36549E-04 
  34617.2977     0.37526E-04 
  34649.5598     0.38522E-04 
  34681.8220     0.39538E-04 
  34714.0842     0.40572E-04 
  34746.3463     0.41626E-04 
  34778.6085     0.42701E-04 
  34810.8706     0.43795E-04 
  34843.1328     0.44910E-04 
  34875.3950     0.46046E-04 
  34907.6571     0.47204E-04 
  34939.9193     0.48382E-04 
  34972.1814     0.49583E-04 
  35004.4436     0.50806E-04 
  35036.7058     0.52051E-04 
  35068.9679     0.53319E-04 
  35101.2301     0.54610E-04 
  35133.4922     0.55925E-04 
  35165.7544     0.57264E-04 
  35198.0166     0.58627E-04 
  35230.2787     0.60015E-04 
  35262.5409     0.61428E-04 
  35294.8030     0.62866E-04 
  35327.0652     0.64330E-04 
  35359.3274     0.65820E-04 
  35391.5895     0.67337E-04 
  35423.8517     0.68881E-04 
  35456.1138     0.70452E-04 
  35488.3760     0.72051E-04 
  35520.6382     0.73678E-04 
  35552.9003     0.75334E-04 
  35585.1625     0.77019E-04 
  35617.4246     0.78734E-04 
  35649.6868     0.80479E-04 
  35681.9490     0.82254E-04 
  35714.2111     0.84060E-04 
  35746.4733     0.85898E-04 
  35778.7354     0.87767E-04 
  35810.9976     0.89670E-04 
  35843.2598     0.91605E-04 
  35875.5219     0.93573E-04 
  35907.7841     0.95576E-04 
  35940.0462     0.97613E-04 
  35972.3084     0.99685E-04 
  36004.5706     0.10179E-03 
  36036.8327     0.10394E-03 
  36069.0949     0.10612E-03 
  36101.3570     0.10834E-03 
  36133.6192     0.11059E-03 
  36165.8814     0.11289E-03 
  36198.1435     0.11522E-03 
  36230.4057     0.11759E-03 
  36262.6678     0.12001E-03 
  36294.9300     0.12246E-03 
  36327.1922     0.12496E-03 
  36359.4543     0.12750E-03 
  36391.7165     0.13008E-03 
  36423.9786     0.13270E-03 
  36456.2408     0.13537E-03 
  36488.5030     0.13809E-03 
  36520.7651     0.14085E-03 
  36553.0273     0.14365E-03 
  36585.2894     0.14651E-03 
  36617.5516     0.14941E-03 
  36649.8138     0.15236E-03 
  36682.0759     0.15536E-03 
  36714.3381     0.15841E-03 
  36746.6002     0.16152E-03 
  36778.8624     0.16467E-03 
  36811.1246     0.16788E-03 
  36843.3867     0.17114E-03 
  36875.6489     0.17446E-03 
  36907.9110     0.17783E-03 
  36940.1732     0.18125E-03 
  36972.4354     0.18474E-03 
  37004.6975     0.18828E-03 
  37036.9597     0.19189E-03 
  37069.2218     0.19555E-03 
  37101.4840     0.19927E-03 
  37133.7462     0.20306E-03 
  37166.0083     0.20691E-03 
  37198.2705     0.21082E-03 
  37230.5326     0.21480E-03 
  37262.7948     0.21884E-03 
  37295.0570     0.22296E-03 
  37327.3191     0.22714E-03 
  37359.5813     0.23139E-03 
  37391.8434     0.23571E-03 
  37424.1056     0.24010E-03 
  37456.3678     0.24457E-03 
  37488.6299     0.24911E-03 
  37520.8921     0.25373E-03 
  37553.1542     0.25842E-03 
  37585.4164     0.26320E-03 
  37617.6786     0.26805E-03 
  37649.9407     0.27298E-03 
  37682.2029     0.27800E-03 
  37714.4650     0.28310E-03 
  37746.7272     0.28828E-03 
  37778.9894     0.29355E-03 
  37811.2515     0.29891E-03 
  37843.5137     0.30436E-03 
  37875.7758     0.30990E-03 
  37908.0380     0.31553E-03 
  37940.3002     0.32126E-03 
  37972.5623     0.32708E-03 
  38004.8245     0.33300E-03 
  38037.0866     0.33902E-03 
  38069.3488     0.34514E-03 
  38101.6110     0.35136E-03 
  38133.8731     0.35769E-03 
  38166.1353     0.36412E-03 
  38198.3974     0.37066E-03 
  38230.6596     0.37731E-03 
  38262.9218     0.38407E-03 
  38295.1839     0.39095E-03 
  38327.4461     0.39794E-03 
  38359.7082     0.40504E-03 
  38391.9704     0.41227E-03 
  38424.2326     0.41962E-03 
  38456.4947     0.42710E-03 
  38488.7569     0.43470E-03 
  38521.0190     0.44243E-03 
  38553.2812     0.45029E-03 
  38585.5434     0.45828E-03 
  38617.8055     0.46640E-03 
  38650.0677     0.47467E-03 
  38682.3298     0.48307E-03 
  38714.5920     0.49162E-03 
  38746.8542     0.50031E-03 
  38779.1163     0.50915E-03 
  38811.3785     0.51815E-03 
  38843.6406     0.52729E-03 
  38875.9028     0.53659E-03 
  38908.1650     0.54605E-03 
  38940.4271     0.55567E-03 
  38972.6893     0.56545E-03 
  39004.9514     0.57540E-03 
  39037.2136     0.58552E-03 
  39069.4758     0.59582E-03 
  39101.7379     0.60629E-03 
  39134.0001     0.61694E-03 
  39166.2622     0.62778E-03 
  39198.5244     0.63880E-03 
  39230.7866     0.65001E-03 
  39263.0487     0.66141E-03 
  39295.3109     0.67301E-03 
  39327.5730     0.68482E-03 
  39359.8352     0.69682E-03 
  39392.0974     0.70904E-03 
  39424.3595     0.72146E-03 
  39456.6217     0.73410E-03 
  39488.8838     0.74697E-03 
  39521.1460     0.76005E-03 
  39553.4082     0.77337E-03 
  39585.6703     0.78691E-03 
  39617.9325     0.80070E-03 
  39650.1946     0.81472E-03 
  39682.4568     0.82899E-03 
  39714.7190     0.84351E-03 
  39746.9811     0.85829E-03 
  39779.2433     0.87332E-03 
  39811.5054     0.88863E-03 
  39843.7676     0.90420E-03 
  39876.0298     0.92004E-03 
  39908.2919     0.93617E-03 
  39940.5541     0.95258E-03 
  39972.8162     0.96929E-03 
  40005.0784     0.98629E-03 
  40037.3406     0.10036E-02 
  40069.6027     0.10212E-02 
  40101.8649     0.10391E-02 
  40134.1270     0.10574E-02 
  40166.3892     0.10760E-02 
  40198.6514     0.10949E-02 
  40230.9135     0.11141E-02 
  40263.1757     0.11337E-02 
  40295.4378     0.11537E-02 
  40327.7000     0.11740E-02 
  40359.9622     0.11947E-02 
  40392.2243     0.12157E-02 
  40424.4865     0.12371E-02 
  40456.7486     0.12590E-02 
  40489.0108     0.12812E-02 
  40521.2730     0.13038E-02 
  40553.5351     0.13269E-02 
  40585.7973     0.13503E-02 
  40618.0594     0.13742E-02 
  40650.3216     0.13985E-02 
  40682.5838     0.14233E-02 
  40714.8459     0.14486E-02 
  40747.1081     0.14743E-02 
  40779.3702     0.15005E-02 
  40811.6324     0.15271E-02 
  40843.8946     0.15543E-02 
  40876.1567     0.15820E-02 
  40908.4189     0.16101E-02 
  40940.6810     0.16389E-02 
  40972.9432     0.16681E-02 
  41005.2054     0.16979E-02 
  41037.4675     0.17283E-02 
  41069.7297     0.17592E-02 
  41101.9918     0.17907E-02 
  41134.2540     0.18228E-02 
  41166.5162     0.18556E-02 
  41198.7783     0.18889E-02 
  41231.0405     0.19229E-02 
  41263.3026     0.19575E-02 
  41295.5648     0.19928E-02 
  41327.8270     0.20288E-02 
  41360.0891     0.20654E-02 
  41392.3513     0.21028E-02 
  41424.6134     0.21409E-02 
  41456.8756     0.21797E-02 
  41489.1378     0.22193E-02 
  41521.3999     0.22597E-02 
  41553.6621     0.23008E-02 
  41585.9242     0.23427E-02 
  41618.1864     0.23855E-02 
  41650.4486     0.24291E-02 
  41682.7107     0.24735E-02 
  41714.9729     0.25189E-02 
  41747.2350     0.25651E-02 
  41779.4972     0.26122E-02 
  41811.7594     0.26603E-02 
  41844.0215     0.27093E-02 
  41876.2837     0.27594E-02 
  41908.5458     0.28104E-02 
  41940.8080     0.28624E-02 
  41973.0702     0.29155E-02 
  42005.3323     0.29696E-02 
  42037.5945     0.30249E-02 
  42069.8566     0.30812E-02 
  42102.1188     0.31387E-02 
  42134.3810     0.31974E-02 
  42166.6431     0.32573E-02 
  42198.9053     0.33184E-02 
  42231.1674     0.33807E-02 
  42263.4296     0.34444E-02 
  42295.6918     0.35093E-02 
  42327.9539     0.35756E-02 
  42360.2161     0.36433E-02 
  42392.4782     0.37123E-02 
  42424.7404     0.37828E-02 
  42457.0026     0.38548E-02 
  42489.2647     0.39283E-02 
  42521.5269     0.40034E-02 
  42553.7890     0.40800E-02 
  42586.0512     0.41582E-02 
  42618.3134     0.42381E-02 
  42650.5755     0.43197E-02 
  42682.8377     0.44031E-02 
  42715.0998     0.44882E-02 
  42747.3620     0.45751E-02 
  42779.6242     0.46640E-02 
  42811.8863     0.47547E-02 
  42844.1485     0.48474E-02 
  42876.4106     0.49421E-02 
  42908.6728     0.50389E-02 
  42940.9350     0.51378E-02 
  42973.1971     0.52389E-02 
  43005.4593     0.53422E-02 
  43037.7214     0.54477E-02 
  43069.9836     0.55556E-02 
  43102.2458     0.56659E-02 
  43134.5079     0.57787E-02 
  43166.7701     0.58940E-02 
  43199.0322     0.60118E-02 
  43231.2944     0.61323E-02 
  43263.5566     0.62555E-02 
  43295.8187     0.63815E-02 
  43328.0809     0.65104E-02 
  43360.3430     0.66422E-02 
  43392.6052     0.67771E-02 
  43424.8674     0.69150E-02 
  43457.1295     0.70561E-02 
  43489.3917     0.72004E-02 
  43521.6538     0.73481E-02 
  43553.9160     0.74993E-02 
  43586.1782     0.76539E-02 
  43618.4403     0.78122E-02 
  43650.7025     0.79742E-02 
  43682.9646     0.81400E-02 
  43715.2268     0.83098E-02 
  43747.4890     0.84836E-02 
  43779.7511     0.86615E-02 
  43812.0133     0.88437E-02 
  43844.2754     0.90303E-02 
  43876.5376     0.92214E-02 
  43908.7998     0.94171E-02 
  43941.0619     0.96175E-02 
  43973.3241     0.98229E-02 
  44005.5862     0.10033E-01 
  44037.8484     0.10249E-01 
  44070.1106     0.10470E-01 
  44102.3727     0.10696E-01 
  44134.6349     0.10928E-01 
  44166.8970     0.11166E-01 
  44199.1592     0.11410E-01 
  44231.4214     0.11659E-01 
  44263.6835     0.11916E-01 
  44295.9457     0.12178E-01 
  44328.2078     0.12448E-01 
  44360.4700     0.12724E-01 
  44392.7322     0.13007E-01 
  44424.9943     0.13298E-01 
  44457.2565     0.13596E-01 
  44489.5186     0.13902E-01 
  44521.7808     0.14216E-01 
  44554.0430     0.14539E-01 
  44586.3051     0.14870E-01 
  44618.5673     0.15209E-01 
  44650.8294     0.15558E-01 
  44683.0916     0.15916E-01 
  44715.3538     0.16283E-01 
  44747.6159     0.16660E-01 
  44779.8781     0.17048E-01 
  44812.1402     0.17446E-01 
  44844.4024     0.17855E-01 
  44876.6646     0.18276E-01 
  44908.9267     0.18708E-01 
  44941.1889     0.19152E-01 
  44973.4510     0.19608E-01 
  45005.7132     0.20077E-01 
  45037.9754     0.20559E-01 
  45070.2375     0.21055E-01 
  45102.4997     0.21565E-01 
  45134.7618     0.22090E-01 
  45167.0240     0.22630E-01 
  45199.2862     0.23185E-01 
  45231.5483     0.23756E-01 
  45263.8105     0.24344E-01 
  45296.0726     0.24950E-01 
  45328.3348     0.25573E-01 
  45360.5970     0.26214E-01 
  45392.8591     0.26875E-01 
  45425.1213     0.27555E-01 
  45457.3834     0.28256E-01 
  45489.6456     0.28978E-01 
  45521.9078     0.29722E-01 
  45554.1699     0.30489E-01 
  45586.4321     0.31280E-01 
  45618.6942     0.32095E-01 
  45650.9564     0.32935E-01 
  45683.2186     0.33802E-01 
  45715.4807     0.34695E-01 
  45747.7429     0.35618E-01 
  45780.0050     0.36569E-01 
  45812.2672     0.37551E-01 
  45844.5294     0.38565E-01 
  45876.7915     0.39611E-01 
  45909.0537     0.40692E-01 
  45941.3158     0.41808E-01 
  45973.5780     0.42961E-01 
  46005.8402     0.44153E-01 
  46038.1023     0.45384E-01 
  46070.3645     0.46657E-01 
  46102.6266     0.47972E-01 
  46134.8888     0.49333E-01 
  46167.1510     0.50740E-01 
  46199.4131     0.52196E-01 
  46231.6753     0.53703E-01 
  46263.9374     0.55262E-01 
  46296.1996     0.56877E-01 
  46328.4618     0.58549E-01 
  46360.7239     0.60280E-01 
  46392.9861     0.62074E-01 
  46425.2482     0.63933E-01 
  46457.5104     0.65859E-01 
  46489.7726     0.67857E-01 
  46522.0347     0.69929E-01 
  46554.2969     0.72078E-01 
  46586.5590     0.74308E-01 
  46618.8212     0.76622E-01 
  46651.0834     0.79025E-01 
  46683.3455     0.81520E-01 
  46715.6077     0.84112E-01 
  46747.8698     0.86805E-01 
  46780.1320     0.89604E-01 
  46812.3942     0.92514E-01 
  46844.6563     0.95541E-01 
  46876.9185     0.98691E-01 
  46909.1806     0.10197E+00 
  46941.4428     0.10538E+00 
  46973.7050     0.10893E+00 
  47005.9671     0.11263E+00 
  47038.2293     0.11649E+00 
  47070.4914     0.12051E+00 
  47102.7536     0.12471E+00 
  47135.0158     0.12908E+00 
  47167.2779     0.13365E+00 
  47199.5401     0.13842E+00 
  47231.8022     0.14340E+00 
  47264.0644     0.14860E+00 
  47296.3266     0.15404E+00 
  47328.5887     0.15973E+00 
  47360.8509     0.16568E+00 
  47393.1130     0.17191E+00 
  47425.3752     0.17843E+00 
  47457.6374     0.18526E+00 
  47489.8995     0.19242E+00 
  47522.1617     0.19994E+00 
  47554.4238     0.20782E+00 
  47586.6860     0.21609E+00 
  47618.9482     0.22478E+00 
  47651.2103     0.23391E+00 
  47683.4725     0.24351E+00 
  47715.7346     0.25360E+00 
  47747.9968     0.26423E+00 
  47780.2590     0.27543E+00 
  47812.5211     0.28723E+00 
  47844.7833     0.29967E+00 
  47877.0454     0.31280E+00 
  47909.3076     0.32667E+00 
  47941.5698     0.34131E+00 
  47973.8319     0.35680E+00 
  48006.0941     0.37319E+00 
  48038.3562     0.39055E+00 
  48070.6184     0.40894E+00 
  48102.8806     0.42845E+00 
  48135.1427     0.44915E+00 
  48167.4049     0.47114E+00 
  48199.6670     0.49452E+00 
  48231.9292     0.51941E+00 
  48264.1914     0.54591E+00 
  48296.4535     0.57417E+00 
  48328.7157     0.60432E+00 
  48360.9778     0.63653E+00 
  48393.2400     0.67098E+00 
  48425.5022     0.70785E+00 
  48457.7643     0.74737E+00 
  48490.0265     0.78978E+00 
  48522.2886     0.83533E+00 
  48554.5508     0.88432E+00 
  48586.8130     0.93708E+00 
  48619.0751     0.99397E+00 
  48651.3373     0.10554E+01 
  48683.5994     0.11218E+01 
  48715.8616     0.11938E+01 
  48748.1238     0.12718E+01 
  48780.3859     0.13566E+01 
  48812.6481     0.14489E+01 
  48844.9102     0.15494E+01 
  48877.1724     0.16592E+01 
  48909.4346     0.17792E+01 
  48941.6967     0.19108E+01 
  48973.9589     0.20552E+01 
  49006.2210     0.22140E+01 
  49038.4832     0.23891E+01 
  49070.7454     0.25824E+01 
  49103.0075     0.27961E+01 
  49135.2697     0.30330E+01 
  49167.5318     0.32960E+01 
  49199.7940     0.35884E+01 
  49232.0562     0.39140E+01 
  49264.3183     0.42768E+01 
  49296.5805     0.46813E+01 
  49328.8426     0.51325E+01 
  49361.1048     0.56354E+01 
  49393.3670     0.61952E+01 
  49425.6291     0.68168E+01 
  49457.8913     0.75048E+01 
  49490.1534     0.82629E+01 
  49522.4156     0.90939E+01 
  49554.6778     0.99986E+01 
  49586.9399     0.10976E+02 
  49619.2021     0.12023E+02 
  49651.4642     0.13135E+02 
  49683.7264     0.14301E+02 
  49715.9886     0.15513E+02 
  49748.2507     0.16755E+02 
  49780.5129     0.18012E+02 
  49812.7750     0.19267E+02 
  49845.0372     0.20500E+02 
  49877.2994     0.21691E+02 
  49909.5615     0.22821E+02 
  49941.8237     0.23870E+02 
  49974.0858     0.24820E+02 
  50006.3480     0.25654E+02 
  50038.6102     0.26358E+02 
  50070.8723     0.26923E+02 
  50103.1345     0.27339E+02 
  50135.3966     0.27605E+02 
  50167.6588     0.27718E+02 
  50199.9210     0.27683E+02 
  50232.1831     0.27504E+02 
  50264.4453     0.27192E+02 
  50296.7074     0.26757E+02 
  50328.9696     0.26211E+02 
  50361.2318     0.25567E+02 
  50393.4939     0.24838E+02 
  50425.7561     0.24037E+02 
  50458.0182     0.23176E+02 
  50490.2804     0.22265E+02 
  50522.5426     0.21315E+02 
  50554.8047     0.20331E+02 
  50587.0669     0.19322E+02 
  50619.3290     0.18292E+02 
  50651.5912     0.17246E+02 
  50683.8534     0.16188E+02 
  50716.1155     0.15120E+02 
  50748.3777     0.14048E+02 
  50780.6398     0.12975E+02 
  50812.9020     0.11905E+02 
  50845.1642     0.10845E+02 
  50877.4263     0.97999E+01 
  50909.6885     0.87778E+01 
  50941.9506     0.77860E+01 
  50974.2128     0.68328E+01 
  51006.4750     0.59268E+01 
  51038.7371     0.50766E+01 
  51070.9993     0.42909E+01 
  51103.2614     0.35777E+01 
  51135.5236     0.29447E+01 
  51167.7858     0.23988E+01 
  51200.0479     0.19461E+01 
  51232.3101     0.15917E+01 
  51264.5722     0.13393E+01 
  51296.8344     0.11916E+01 
  51329.0966     0.11501E+01 
  51361.3587     0.12145E+01 
  51393.6209     0.13833E+01 
  51425.8830     0.16535E+01 
  51458.1452     0.20203E+01 
  51490.4074     0.24775E+01 
  51522.6695     0.30174E+01 
  51554.9317     0.36308E+01 
  51587.1938     0.43074E+01 
  51619.4560     0.50359E+01 
  51651.7182     0.58039E+01 
  51683.9803     0.65986E+01 
  51716.2425     0.74072E+01 
  51748.5046     0.82165E+01 
  51780.7668     0.90140E+01 
  51813.0290     0.97877E+01 
  51845.2911     0.10527E+02 
  51877.5533     0.11221E+02 
  51909.8154     0.11863E+02 
  51942.0776     0.12444E+02 
  51974.3398     0.12961E+02 
  52006.6019     0.13409E+02 
  52038.8641     0.13785E+02 
  52071.1262     0.14090E+02 
  52103.3884     0.14324E+02 
  52135.6506     0.14487E+02 
  52167.9127     0.14582E+02 
  52200.1749     0.14611E+02 
  52232.4370     0.14579E+02 
  52264.6992     0.14487E+02 
  52296.9614     0.14340E+02 
  52329.2235     0.14140E+02 
  52361.4857     0.13892E+02 
  52393.7478     0.13597E+02 
  52426.0100     0.13259E+02 
  52458.2722     0.12882E+02 
  52490.5343     0.12467E+02 
  52522.7965     0.12019E+02 
  52555.0586     0.11541E+02 
  52587.3208     0.11036E+02 
  52619.5830     0.10509E+02 
  52651.8451     0.99634E+01 
  52684.1073     0.94040E+01 
  52716.3694     0.88355E+01 
  52748.6316     0.82629E+01 
  52780.8938     0.76913E+01 
  52813.1559     0.71258E+01 
  52845.4181     0.65713E+01 
  52877.6802     0.60327E+01 
  52909.9424     0.55146E+01 
  52942.2046     0.50212E+01 
  52974.4667     0.45564E+01 
  53006.7289     0.41235E+01 
  53038.9910     0.37255E+01 
  53071.2532     0.33647E+01 
  53103.5154     0.30430E+01 
  53135.7775     0.27617E+01 
  53168.0397     0.25215E+01 
  53200.3018     0.23226E+01 
  53232.5640     0.21646E+01 
  53264.8262     0.20466E+01 
  53297.0883     0.19671E+01 
  53329.3505     0.19244E+01 
  53361.6126     0.19160E+01 
  53393.8748     0.19392E+01 
  53426.1370     0.19911E+01 
  53458.3991     0.20683E+01 
  53490.6613     0.21672E+01 
  53522.9234     0.22844E+01 
  53555.1856     0.24161E+01 
  53587.4478     0.25588E+01 
  53619.7099     0.27087E+01 
  53651.9721     0.28626E+01 
  53684.2342     0.30173E+01 
  53716.4964     0.31699E+01 
  53748.7586     0.33177E+01 
  53781.0207     0.34585E+01 
  53813.2829     0.35903E+01 
  53845.5450     0.37115E+01 
  53877.8072     0.38207E+01 
  53910.0694     0.39169E+01 
  53942.3315     0.39995E+01 
  53974.5937     0.40677E+01 
  54006.8558     0.41214E+01 
  54039.1180     0.41604E+01 
  54071.3802     0.41847E+01 
  54103.6423     0.41945E+01 
  54135.9045     0.41899E+01 
  54168.1666     0.41713E+01 
  54200.4288     0.41391E+01 
  54232.6910     0.40938E+01 
  54264.9531     0.40361E+01 
  54297.2153     0.39665E+01 
  54329.4774     0.38859E+01 
  54361.7396     0.37951E+01 
  54394.0018     0.36950E+01 
  54426.2639     0.35867E+01 
  54458.5261     0.34713E+01 
  54490.7882     0.33499E+01 
  54523.0504     0.32236E+01 
  54555.3126     0.30938E+01 
  54587.5747     0.29617E+01 
  54619.8369     0.28286E+01 
  54652.0990     0.26955E+01 
  54684.3612     0.25637E+01 
  54716.6234     0.24342E+01 
  54748.8855     0.23082E+01 
  54781.1477     0.21864E+01 
  54813.4098     0.20698E+01 
  54845.6720     0.19590E+01 
  54877.9342     0.18546E+01 
  54910.1963     0.17572E+01 
  54942.4585     0.16671E+01 
  54974.7206     0.15846E+01 
  55006.9828     0.15098E+01 
  55039.2450     0.14428E+01 
  55071.5071     0.13835E+01 
  55103.7693     0.13317E+01 
  55136.0314     0.12872E+01 
  55168.2936     0.12497E+01 
  55200.5558     0.12187E+01 
  55232.8179     0.11939E+01 
  55265.0801     0.11746E+01 
  55297.3422     0.11603E+01 
  55329.6044     0.11505E+01 
  55361.8666     0.11446E+01 
  55394.1287     0.11419E+01 
  55426.3909     0.11420E+01 
  55458.6530     0.11441E+01 
  55490.9152     0.11478E+01 
  55523.1774     0.11526E+01 
  55555.4395     0.11580E+01 
  55587.7017     0.11635E+01 
  55619.9638     0.11689E+01 
  55652.2260     0.11737E+01 
  55684.4882     0.11776E+01 
  55716.7503     0.11805E+01 
  55749.0125     0.11820E+01 
  55781.2746     0.11820E+01 
  55813.5368     0.11805E+01 
  55845.7990     0.11771E+01 
  55878.0611     0.11720E+01 
  55910.3233     0.11650E+01 
  55942.5854     0.11561E+01 
  55974.8476     0.11453E+01 
  56007.1098     0.11327E+01 
  56039.3719     0.11182E+01 
  56071.6341     0.11020E+01 
  56103.8962     0.10841E+01 
  56136.1584     0.10647E+01 
  56168.4206     0.10438E+01 
  56200.6827     0.10216E+01 
  56232.9449     0.99828E+00 
  56265.2070     0.97396E+00 
  56297.4692     0.94883E+00 
  56329.7314     0.92306E+00 
  56361.9935     0.89683E+00 
  56394.2557     0.87032E+00 
  56426.5178     0.84371E+00 
  56458.7800     0.81717E+00 
  56491.0422     0.79086E+00 
  56523.3043     0.76494E+00 
  56555.5665     0.73953E+00 
  56587.8286     0.71478E+00 
  56620.0908     0.69080E+00 
  56652.3530     0.66767E+00 
  56684.6151     0.64549E+00 
  56716.8773     0.62431E+00 
  56749.1394     0.60420E+00 
  56781.4016     0.58517E+00 
  56813.6638     0.56726E+00 
  56845.9259     0.55046E+00 
  56878.1881     0.53477E+00 
  56910.4502     0.52017E+00 
  56942.7124     0.50662E+00 
  56974.9746     0.49408E+00 
  57007.2367     0.48251E+00 
  57039.4989     0.47184E+00 
  57071.7610     0.46201E+00 
  57104.0232     0.45295E+00 
  57136.2854     0.44460E+00 
  57168.5475     0.43688E+00 
  57200.8097     0.42971E+00 
  57233.0718     0.42304E+00 
  57265.3340     0.41678E+00 
  57297.5962     0.41088E+00 
  57329.8583     0.40527E+00 
  57362.1205     0.39989E+00 
  57394.3826     0.39468E+00 
  57426.6448     0.38961E+00 
  57458.9070     0.38461E+00 
  57491.1691     0.37967E+00 
  57523.4313     0.37473E+00 
  57555.6934     0.36977E+00 
  57587.9556     0.36477E+00 
  57620.2178     0.35970E+00 
  57652.4799     0.35455E+00 
  57684.7421     0.34929E+00 
  57717.0042     0.34394E+00 
  57749.2664     0.33847E+00 
  57781.5286     0.33289E+00 
  57813.7907     0.32719E+00 
  57846.0529     0.32139E+00 
  57878.3150     0.31548E+00 
  57910.5772     0.30948E+00 
  57942.8394     0.30340E+00 
  57975.1015     0.29726E+00 
  58007.3637     0.29105E+00 
  58039.6258     0.28482E+00 
  58071.8880     0.27856E+00 
  58104.1502     0.27231E+00 
  58136.4123     0.26607E+00 
  58168.6745     0.25987E+00 
  58200.9366     0.25373E+00 
  58233.1988     0.24766E+00 
  58265.4610     0.24168E+00 
  58297.7231     0.23580E+00 
  58329.9853     0.23004E+00 
  58362.2474     0.22440E+00 
  58394.5096     0.21892E+00 
  58426.7718     0.21358E+00 
  58459.0339     0.20839E+00 
  58491.2961     0.20338E+00 
  58523.5582     0.19853E+00 
  58555.8204     0.19385E+00 
  58588.0826     0.18934E+00 
  58620.3447     0.18500E+00 
  58652.6069     0.18083E+00 
  58684.8690     0.17682E+00 
  58717.1312     0.17298E+00 
  58749.3934     0.16929E+00 
  58781.6555     0.16575E+00 
  58813.9177     0.16235E+00 
  58846.1798     0.15909E+00 
  58878.4420     0.15595E+00 
  58910.7042     0.15293E+00 
  58942.9663     0.15003E+00 
  58975.2285     0.14722E+00 
  59007.4906     0.14451E+00 
  59039.7528     0.14189E+00 
  59072.0150     0.13934E+00 
  59104.2771     0.13687E+00 
  59136.5393     0.13446E+00 
  59168.8014     0.13210E+00 
  59201.0636     0.12980E+00 
  59233.3258     0.12755E+00 
  59265.5879     0.12534E+00 
  59297.8501     0.12317E+00 
  59330.1122     0.12103E+00 
  59362.3744     0.11893E+00 
  59394.6366     0.11685E+00 
  59426.8987     0.11479E+00 
  59459.1609     0.11276E+00 
  59491.4230     0.11075E+00 
  59523.6852     0.10876E+00 
  59555.9474     0.10680E+00 
  59588.2095     0.10485E+00 
  59620.4717     0.10292E+00 
  59652.7338     0.10101E+00 
  59684.9960     0.99119E-01 
  59717.2582     0.97250E-01 
  59749.5203     0.95402E-01 
  59781.7825     0.93577E-01 
  59814.0446     0.91776E-01 
  59846.3068     0.90000E-01 
  59878.5690     0.88249E-01 
  59910.8311     0.86526E-01 
  59943.0933     0.84832E-01 
  59975.3554     0.83167E-01 
  60007.6176     0.81533E-01 
  60039.8798     0.79931E-01 
  60072.1419     0.78361E-01 
  60104.4041     0.76825E-01 
  60136.6662     0.75323E-01 
  60168.9284     0.73854E-01 
  60201.1906     0.72421E-01 
  60233.4527     0.71022E-01 
  60265.7149     0.69657E-01 
  60297.9770     0.68327E-01 
  60330.2392     0.67031E-01 
  60362.5014     0.65769E-01 
  60394.7635     0.64540E-01 
  60427.0257     0.63343E-01 
  60459.2878     0.62178E-01 
  60491.5500     0.61043E-01 
  60523.8122     0.59938E-01 
  60556.0743     0.58862E-01 
  60588.3365     0.57814E-01 
  60620.5986     0.56792E-01 
  60652.8608     0.55796E-01 
  60685.1230     0.54825E-01 
  60717.3851     0.53877E-01 
  60749.6473     0.52951E-01 
  60781.9094     0.52046E-01 
  60814.1716     0.51162E-01 
  60846.4338     0.50297E-01 
  60878.6959     0.49451E-01 
  60910.9581     0.48622E-01 
  60943.2202     0.47810E-01 
  60975.4824     0.47014E-01 
  61007.7446     0.46234E-01 
  61040.0067     0.45468E-01 
  61072.2689     0.44716E-01 
  61104.5310     0.43978E-01 
  61136.7932     0.43252E-01 
  61169.0554     0.42540E-01 
  61201.3175     0.41839E-01 
  61233.5797     0.41150E-01 
  61265.8418     0.40473E-01 
  61298.1040     0.39807E-01 
  61330.3662     0.39153E-01 
  61362.6283     0.38509E-01 
  61394.8905     0.37875E-01 
  61427.1526     0.37253E-01 
  61459.4148     0.36640E-01 
  61491.6770     0.36038E-01 
  61523.9391     0.35447E-01 
  61556.2013     0.34865E-01 
  61588.4634     0.34294E-01 
  61620.7256     0.33733E-01 
  61652.9878     0.33182E-01 
  61685.2499     0.32640E-01 
  61717.5121     0.32109E-01 
  61749.7742     0.31587E-01 
  61782.0364     0.31076E-01 
  61814.2986     0.30574E-01 
  61846.5607     0.30081E-01 
  61878.8229     0.29598E-01 
  61911.0850     0.29125E-01 
  61943.3472     0.28661E-01 
  61975.6094     0.28206E-01 
  62007.8715     0.27760E-01 
  62040.1337     0.27323E-01 
  62072.3958     0.26894E-01 
  62104.6580     0.26474E-01 
  62136.9202     0.26063E-01 
  62169.1823     0.25660E-01 
  62201.4445     0.25264E-01 
  62233.7066     0.24877E-01 
  62265.9688     0.24497E-01 
  62298.2310     0.24124E-01 
  62330.4931     0.23759E-01 
  62362.7553     0.23401E-01 
  62395.0174     0.23049E-01 
  62427.2796     0.22704E-01 
  62459.5418     0.22366E-01 
  62491.8039     0.22034E-01 
  62524.0661     0.21708E-01 
  62556.3282     0.21388E-01 
  62588.5904     0.21074E-01 
  62620.8526     0.20765E-01 
  62653.1147     0.20462E-01 
  62685.3769     0.20164E-01 
  62717.6390     0.19871E-01 
  62749.9012     0.19583E-01 
  62782.1634     0.19300E-01 
  62814.4255     0.19022E-01 
  62846.6877     0.18748E-01 
  62878.9498     0.18479E-01 
  62911.2120     0.18214E-01 
  62943.4742     0.17954E-01 
  62975.7363     0.17698E-01 
  63007.9985     0.17446E-01 
  63040.2606     0.17199E-01 
  63072.5228     0.16955E-01 
  63104.7850     0.16715E-01 
  63137.0471     0.16479E-01 
  63169.3093     0.16247E-01 
  63201.5714     0.16019E-01 
  63233.8336     0.15794E-01 
  63266.0958     0.15573E-01 
  63298.3579     0.15355E-01 
  63330.6201     0.15141E-01 
  63362.8822     0.14931E-01 
  63395.1444     0.14723E-01 
  63427.4066     0.14519E-01 
  63459.6687     0.14319E-01 
  63491.9309     0.14121E-01 
  63524.1930     0.13927E-01 
  63556.4552     0.13736E-01 
  63588.7174     0.13548E-01 
  63620.9795     0.13363E-01 
  63653.2417     0.13181E-01 
  63685.5038     0.13002E-01 
  63717.7660     0.12826E-01 
  63750.0282     0.12653E-01 
  63782.2903     0.12482E-01 
  63814.5525     0.12314E-01 
  63846.8146     0.12149E-01 
  63879.0768     0.11986E-01 
  63911.3390     0.11826E-01 
  63943.6011     0.11669E-01 
  63975.8633     0.11514E-01 
  64008.1254     0.11361E-01 
  64040.3876     0.11211E-01 
  64072.6498     0.11063E-01 
  64104.9119     0.10917E-01 
  64137.1741     0.10774E-01 
  64169.4362     0.10632E-01 
  64201.6984     0.10493E-01 
  64233.9606     0.10356E-01 
  64266.2227     0.10221E-01 
  64298.4849     0.10088E-01 
  64330.7470     0.99568E-02 
  64363.0092     0.98276E-02 
  64395.2714     0.97004E-02 
  64427.5335     0.95749E-02 
  64459.7957     0.94514E-02 
  64492.0578     0.93295E-02 
  64524.3200     0.92095E-02 
  64556.5822     0.90911E-02 
  64588.8443     0.89745E-02 
  64621.1065     0.88595E-02 
  64653.3686     0.87461E-02 
  64685.6308     0.86343E-02 
  64717.8930     0.85240E-02 
  64750.1551     0.84154E-02 
  64782.4173     0.83082E-02 
  64814.6794     0.82025E-02 
  64846.9416     0.80983E-02 
  64879.2038     0.79955E-02 
  64911.4659     0.78941E-02 
  64943.7281     0.77941E-02 
  64975.9902     0.76955E-02 
  65008.2524     0.75983E-02 
  65040.5146     0.75023E-02 
  65072.7767     0.74077E-02 
  65105.0389     0.73143E-02 
  65137.3010     0.72222E-02 
  65169.5632     0.71314E-02 
  65201.8254     0.70417E-02 
  65234.0875     0.69533E-02 
  65266.3497     0.68661E-02 
  65298.6118     0.67800E-02 
  65330.8740     0.66950E-02 
  65363.1362     0.66112E-02 
  65395.3983     0.65285E-02 
  65427.6605     0.64469E-02 
  65459.9226     0.63664E-02 
  65492.1848     0.62869E-02 
  65524.4470     0.62084E-02 
  65556.7091     0.61310E-02 
  65588.9713     0.60546E-02 
  65621.2334     0.59792E-02 
  65653.4956     0.59047E-02 
  65685.7578     0.58312E-02 
  65718.0199     0.57586E-02 
  65750.2821     0.56870E-02 
  65782.5442     0.56163E-02 
  65814.8064     0.55464E-02 
  65847.0686     0.54775E-02 
  65879.3307     0.54094E-02 
  65911.5929     0.53422E-02 
  65943.8550     0.52758E-02 
  65976.1172     0.52102E-02 
  66008.3794     0.51455E-02 
  66040.6415     0.50816E-02 
  66072.9037     0.50184E-02 
  66105.1658     0.49560E-02 
  66137.4280     0.48944E-02 
  66169.6902     0.48335E-02 
  66201.9523     0.47734E-02 
  66234.2145     0.47140E-02 
  66266.4766     0.46553E-02 
  66298.7388     0.45974E-02 
  66331.0010     0.45401E-02 
  66363.2631     0.44835E-02 
  66395.5253     0.44276E-02 
  66427.7874     0.43723E-02 
  66460.0496     0.43177E-02 
  66492.3118     0.42638E-02 
  66524.5739     0.42105E-02 
  66556.8361     0.41578E-02 
  66589.0982     0.41058E-02 
  66621.3604     0.40543E-02 
  66653.6226     0.40035E-02 
  66685.8847     0.39532E-02 
  66718.1469     0.39036E-02 
  66750.4090     0.38545E-02 
  66782.6712     0.38059E-02 
  66814.9334     0.37580E-02 
  66847.1955     0.37106E-02 
  66879.4577     0.36637E-02 
  66911.7198     0.36174E-02 
  66943.9820     0.35716E-02 
  66976.2442     0.35263E-02 
  67008.5063     0.34815E-02 
  67040.7685     0.34373E-02 
  67073.0306     0.33935E-02 
  67105.2928     0.33503E-02 
  67137.5550     0.33075E-02 
  67169.8171     0.32652E-02 
  67202.0793     0.32234E-02 
  67234.3414     0.31821E-02 
  67266.6036     0.31412E-02 
  67298.8658     0.31008E-02 
  67331.1279     0.30608E-02 
  67363.3901     0.30213E-02 
  67395.6522     0.29822E-02 
  67427.9144     0.29435E-02 
  67460.1766     0.29053E-02 
  67492.4387     0.28674E-02 
  67524.7009     0.28300E-02 
  67556.9630     0.27931E-02 
  67589.2252     0.27565E-02 
  67621.4874     0.27203E-02 
  67653.7495     0.26845E-02 
  67686.0117     0.26491E-02 
  67718.2738     0.26141E-02 
  67750.5360     0.25794E-02 
  67782.7982     0.25452E-02 
  67815.0603     0.25113E-02 
  67847.3225     0.24778E-02 
  67879.5846     0.24446E-02 
  67911.8468     0.24118E-02 
  67944.1090     0.23793E-02 
  67976.3711     0.23472E-02 
  68008.6333     0.23155E-02 
  68040.8954     0.22840E-02 
  68073.1576     0.22529E-02 
  68105.4198     0.22222E-02 
  68137.6819     0.21918E-02 
  68169.9441     0.21616E-02 
  68202.2062     0.21319E-02 
  68234.4684     0.21024E-02 
  68266.7306     0.20732E-02 
  68298.9927     0.20444E-02 
  68331.2549     0.20158E-02 
  68363.5170     0.19876E-02 
  68395.7792     0.19596E-02 
  68428.0414     0.19320E-02 
  68460.3035     0.19046E-02 
  68492.5657     0.18775E-02 
  68524.8278     0.18507E-02 
  68557.0900     0.18242E-02 
  68589.3522     0.17980E-02 
  68621.6143     0.17721E-02 
  68653.8765     0.17464E-02 
  68686.1386     0.17210E-02 
  68718.4008     0.16958E-02 
  68750.6630     0.16709E-02 
  68782.9251     0.16463E-02 
  68815.1873     0.16219E-02 
  68847.4494     0.15978E-02 
  68879.7116     0.15740E-02 
  68911.9738     0.15504E-02 
  68944.2359     0.15270E-02 
  68976.4981     0.15039E-02 
  69008.7602     0.14810E-02 
  69041.0224     0.14584E-02 
  69073.2846     0.14360E-02 
  69105.5467     0.14139E-02 
  69137.8089     0.13919E-02 
  69170.0710     0.13702E-02 
  69202.3332     0.13488E-02 
  69234.5954     0.13275E-02 
  69266.8575     0.13065E-02 
  69299.1197     0.12857E-02 
  69331.3818     0.12651E-02 
  69363.6440     0.12448E-02 
  69395.9062     0.12246E-02 
  69428.1683     0.12047E-02 
  69460.4305     0.11850E-02 
  69492.6926     0.11655E-02 
  69524.9548     0.11462E-02 
  69557.2170     0.11271E-02 
  69589.4791     0.11082E-02 
  69621.7413     0.10895E-02 
  69654.0034     0.10710E-02 
  69686.2656     0.10527E-02 
  69718.5278     0.10346E-02 
  69750.7899     0.10167E-02 
  69783.0521     0.99902E-03 
  69815.3142     0.98150E-03 
  69847.5764     0.96418E-03 
  69879.8386     0.94704E-03 
  69912.1007     0.93009E-03 
  69944.3629     0.91333E-03 
  69976.6250     0.89675E-03 
  70008.8872     0.88035E-03 
  70041.1494     0.86414E-03 
  70073.4115     0.84810E-03 
  70105.6737     0.83224E-03 
  70137.9358     0.81656E-03 
  70170.1980     0.80106E-03 
  70202.4602     0.78573E-03 
  70234.7223     0.77057E-03 
  70266.9845     0.75559E-03 
  70299.2466     0.74077E-03 
  70331.5088     0.72613E-03 
  70363.7710     0.71165E-03 
  70396.0331     0.69735E-03 
  70428.2953     0.68320E-03 
  70460.5574     0.66923E-03 
  70492.8196     0.65541E-03 
  70525.0818     0.64176E-03 
  70557.3439     0.62828E-03 
  70589.6061     0.61495E-03 
  70621.8682     0.60178E-03 
  70654.1304     0.58877E-03 
  70686.3926     0.57592E-03 
  70718.6547     0.56323E-03 
  70750.9169     0.55069E-03 
  70783.1790     0.53831E-03 
  70815.4412     0.52609E-03 
  70847.7034     0.51402E-03 
  70879.9655     0.50210E-03 
  70912.2277     0.49033E-03 
  70944.4898     0.47871E-03 
  70976.7520     0.46725E-03 
  71009.0142     0.45593E-03 
  71041.2763     0.44477E-03 
  71073.5385     0.43375E-03 
  71105.8006     0.42288E-03 
  71138.0628     0.41216E-03 
  71170.3250     0.40158E-03 
  71202.5871     0.39116E-03 
  71234.8493     0.38087E-03 
  71267.1114     0.37073E-03 
  71299.3736     0.36074E-03 
  71331.6358     0.35089E-03 
  71363.8979     0.34118E-03 
  71396.1601     0.33162E-03 
  71428.4222     0.32220E-03 
  71460.6844     0.31292E-03 
  71492.9466     0.30378E-03 
  71525.2087     0.29478E-03 
  71557.4709     0.28593E-03 
  71589.7330     0.27721E-03 
  71621.9952     0.26864E-03 
  71654.2574     0.26020E-03 
  71686.5195     0.25191E-03 
  71718.7817     0.24375E-03 
  71751.0438     0.23573E-03 
  71783.3060     0.22785E-03 
  71815.5682     0.22011E-03 
  71847.8303     0.21250E-03 
  71880.0925     0.20504E-03 
  71912.3546     0.19771E-03 
  71944.6168     0.19052E-03 
  71976.8790     0.18347E-03 
  72009.1411     0.17655E-03 
  72041.4033     0.16977E-03 
  72073.6654     0.16313E-03 
  72105.9276     0.15663E-03 
  72138.1898     0.15026E-03 
  72170.4519     0.14403E-03 
  72202.7141     0.13793E-03 
  72234.9762     0.13197E-03 
  72267.2384     0.12615E-03 
  72299.5006     0.12047E-03 
  72331.7627     0.11492E-03 
  72364.0249     0.10951E-03 
  72396.2870     0.10424E-03 
  72428.5492     0.99098E-04 
  72460.8114     0.94099E-04 
  72493.0735     0.89236E-04 
  72525.3357     0.84511E-04 
  72557.5978     0.79923E-04 
  72589.8600     0.75473E-04 
