     4.00000     0.13738282E-01
     4.01200     0.14082604E-01
     4.02400     0.14436319E-01
     4.03600     0.14799785E-01
     4.04800     0.15173376E-01
     4.06000     0.15557487E-01
     4.07200     0.15952530E-01
     4.08400     0.16358939E-01
     4.09600     0.16777169E-01
     4.10800     0.17207700E-01
     4.12000     0.17651033E-01
     4.13200     0.18107700E-01
     4.14400     0.18578256E-01
     4.15600     0.19063290E-01
     4.16800     0.19563420E-01
     4.18000     0.20079299E-01
     4.19200     0.20611617E-01
     4.20400     0.21161101E-01
     4.21600     0.21728520E-01
     4.22800     0.22314688E-01
     4.24000     0.22920466E-01
     4.25200     0.23546767E-01
     4.26400     0.24194557E-01
     4.27600     0.24864863E-01
     4.28800     0.25558774E-01
     4.30000     0.26277449E-01
     4.31200     0.27022120E-01
     4.32400     0.27794098E-01
     4.33600     0.28594782E-01
     4.34800     0.29425663E-01
     4.36000     0.30288334E-01
     4.37200     0.31184499E-01
     4.38400     0.32115981E-01
     4.39600     0.33084733E-01
     4.40800     0.34092851E-01
     4.42000     0.35142586E-01
     4.43200     0.36236362E-01
     4.44400     0.37376786E-01
     4.45600     0.38566672E-01
     4.46800     0.39809062E-01
     4.48000     0.41107246E-01
     4.49200     0.42464789E-01
     4.50400     0.43885565E-01
     4.51600     0.45373785E-01
     4.52800     0.46934044E-01
     4.54000     0.48571358E-01
     4.55200     0.50291221E-01
     4.56400     0.52099662E-01
     4.57600     0.54003317E-01
     4.58800     0.56009511E-01
     4.60000     0.58126352E-01
     4.61200     0.60362846E-01
     4.62400     0.62729038E-01
     4.63600     0.65236172E-01
     4.64800     0.67896892E-01
     4.66000     0.70725488E-01
     4.67200     0.73738199E-01
     4.68400     0.76953580E-01
     4.69600     0.80392975E-01
     4.70800     0.84081091E-01
     4.72000     0.88046734E-01
     4.73200     0.92323721E-01
     4.74400     0.96952033E-01
     4.75600     0.10197924    
     4.76800     0.10746231    
     4.78000     0.11346978    
     4.79200     0.12008447    
     4.80400     0.12740672    
     4.81600     0.13555825    
     4.82800     0.14468669    
     4.84000     0.15497071    
     4.85200     0.16662576    
     4.86400     0.17991032    
     4.87600     0.19513227    
     4.88800     0.21265526    
     4.90000     0.23290442    
     4.91200     0.25637092    
     4.92400     0.28361460    
     4.93600     0.31526388    
     4.94800     0.35201199    
     4.96000     0.39460876    
     4.97200     0.44384709    
     4.98400     0.50054366    
     4.99600     0.56551358    
     5.00800     0.63953924    
     5.02000     0.72333418    
     5.03200     0.81750330    
     5.04400     0.92250150    
     5.05600      1.0385932    
     5.06800      1.1658158    
     5.08000      1.3039504    
     5.09200      1.4525028    
     5.10400      1.6106974    
     5.11600      1.7774863    
     5.12800      1.9515745    
     5.14000      2.1314610    
     5.15200      2.3154936    
     5.16400      2.5019346    
     5.17600      2.6890337    
     5.18800      2.8751007    
     5.20000      3.0585750    
     5.21200      3.2380831    
     5.22400      3.4124820    
     5.23600      3.5808826    
     5.24800      3.7426519    
     5.26000      3.8973941    
     5.27200      4.0449129    
     5.28400      4.1851582    
     5.29600      4.3181640    
     5.30800      4.4439835    
     5.32000      4.5626290    
     5.33200      4.6740218    
     5.34400      4.7779597    
     5.35600      4.8741026    
     5.36800      4.9619798    
     5.38000      5.0410174    
     5.39200      5.1105815    
     5.40400      5.1700330    
     5.41600      5.2187875    
     5.42800      5.2563731    
     5.44000      5.2824806    
     5.45200      5.2969990    
     5.46400      5.3000343    
     5.47600      5.2919086    
     5.48800      5.2731413    
     5.50000      5.2444129    
     5.51200      5.2065180    
     5.52400      5.1603114    
     5.53600      5.1066532    
     5.54800      5.0463598    
     5.56000      4.9801638    
     5.57200      4.9086873    
     5.58400      4.8324310    
     5.59600      4.7517767    
     5.60800      4.6670043    
     5.62000      4.5783185    
     5.63200      4.4858808    
     5.64400      4.3898443    
     5.65600      4.2903852    
     5.66800      4.1877282    
     5.68000      4.0821634    
     5.69200      3.9740525    
     5.70400      3.8638252    
     5.71600      3.7519669    
     5.72800      3.6389984    
     5.74000      3.5254529    
     5.75200      3.4118506    
     5.76400      3.2986758    
     5.77600      3.1863580    
     5.78800      3.0752589    
     5.80000      2.9656664    
     5.81200      2.8577955    
     5.82400      2.7517949    
     5.83600      2.6477588    
     5.84800      2.5457417    
     5.86000      2.4457734    
     5.87200      2.3478739    
     5.88400      2.2520661    
     5.89600      2.1583840    
     5.90800      2.0668780    
     5.92000      1.9776154    
     5.93200      1.8906775    
     5.94400      1.8061544    
     5.95600      1.7241373    
     5.96800      1.6447110    
     5.98000      1.5679464    
     5.99200      1.4938948    
     6.00400      1.4225835    
     6.01600      1.3540149    
     6.02800      1.2881665    
     6.04000      1.2249940    
     6.05200      1.1644351    
     6.06400      1.1064150    
     6.07600      1.0508511    
     6.08800     0.99765863    
     6.10000     0.94675432    
     6.11200     0.89805977    
     6.12400     0.85150308    
     6.13600     0.80701940    
     6.14800     0.76455032    
     6.16000     0.72404247    
     6.17200     0.68544558    
     6.18400     0.64871038    
     6.19600     0.61378668    
     6.20800     0.58062177    
     6.22000     0.54915939    
     6.23200     0.51933935    
     6.24400     0.49109771    
     6.25600     0.46436745    
     6.26800     0.43907962    
     6.28000     0.41516452    
     6.29200     0.39255310    
     6.30400     0.37117816    
     6.31600     0.35097529    
     6.32800     0.33188360    
     6.34000     0.31384606    
     6.35200     0.29680951    
     6.36400     0.28072448    
     6.37600     0.26554474    
     6.38800     0.25122675    
     6.40000     0.23772912    
     6.41200     0.22501205    
     6.42400     0.21303695    
     6.43600     0.20176608    
     6.44800     0.19116244    
     6.46000     0.18118972    
     6.47200     0.17181242    
     6.48400     0.16299597    
     6.49600     0.15470701    
     6.50800     0.14691355    
     6.52000     0.13958517    
     6.53200     0.13269319    
     6.54400     0.12621069    
     6.55600     0.12011257    
     6.56800     0.11437545    
     6.58000     0.10897760    
     6.59200     0.10389873    
     6.60400     0.99119922E-01
     6.61600     0.94623371E-01
     6.62800     0.90392301E-01
     6.64000     0.86410810E-01
     6.65200     0.82663776E-01
     6.66400     0.79136795E-01
     6.67600     0.75816134E-01
     6.68800     0.72688724E-01
     6.70000     0.69742153E-01
     6.71200     0.66964677E-01
     6.72400     0.64345229E-01
     6.73600     0.61873427E-01
     6.74800     0.59539566E-01
     6.76000     0.57334607E-01
     6.77200     0.55250149E-01
     6.78400     0.53278399E-01
     6.79600     0.51412124E-01
     6.80800     0.49644609E-01
     6.82000     0.47969605E-01
     6.83200     0.46381285E-01
     6.84400     0.44874200E-01
     6.85600     0.43443247E-01
     6.86800     0.42083630E-01
     6.88000     0.40790844E-01
     6.89200     0.39560651E-01
     6.90400     0.38389072E-01
     6.91600     0.37272368E-01
     6.92800     0.36207040E-01
     6.94000     0.35189816E-01
     6.95200     0.34217643E-01
     6.96400     0.33287679E-01
     6.97600     0.32397285E-01
     6.98800     0.31544008E-01
     7.00000     0.30725573E-01
     7.01200     0.29939867E-01
     7.02400     0.29184927E-01
     7.03600     0.28458928E-01
     7.04800     0.27760168E-01
     7.06000     0.27087061E-01
     7.07200     0.26438121E-01
     7.08400     0.25811961E-01
     7.09600     0.25207280E-01
     7.10800     0.24622859E-01
     7.12000     0.24057555E-01
     7.13200     0.23510301E-01
     7.14400     0.22980093E-01
     7.15600     0.22465995E-01
     7.16800     0.21967133E-01
     7.18000     0.21482686E-01
     7.19200     0.21011893E-01
     7.20400     0.20554037E-01
     7.21600     0.20108453E-01
     7.22800     0.19674516E-01
     7.24000     0.19251642E-01
     7.25200     0.18839285E-01
     7.26400     0.18436930E-01
     7.27600     0.18044094E-01
     7.28800     0.17660323E-01
     7.30000     0.17285188E-01
     7.31200     0.16918288E-01
     7.32400     0.16559239E-01
     7.33600     0.16207683E-01
     7.34800     0.15863280E-01
     7.36000     0.15525708E-01
     7.37200     0.15194665E-01
     7.38400     0.14869862E-01
     7.39600     0.14551029E-01
     7.40800     0.14237907E-01
     7.42000     0.13930253E-01
     7.43200     0.13627836E-01
     7.44400     0.13330435E-01
     7.45600     0.13037842E-01
     7.46800     0.12749859E-01
     7.48000     0.12466294E-01
     7.49200     0.12186968E-01
     7.50400     0.11911708E-01
     7.51600     0.11640349E-01
     7.52800     0.11372732E-01
     7.54000     0.11108706E-01
     7.55200     0.10848125E-01
     7.56400     0.10590849E-01
     7.57600     0.10336745E-01
     7.58800     0.10085684E-01
     7.60000     0.98375399E-02
     7.61200     0.95921946E-02
     7.62400     0.93495324E-02
     7.63600     0.91094417E-02
     7.64800     0.88718149E-02
     7.66000     0.86365478E-02
     7.67200     0.84035396E-02
     7.68400     0.81726927E-02
     7.69600     0.79439120E-02
     7.70800     0.77171055E-02
     7.72000     0.74921837E-02
     7.73200     0.72690594E-02
     7.74400     0.70476477E-02
     7.75600     0.68278659E-02
     7.76800     0.66096331E-02
     7.78000     0.63928705E-02
     7.79200     0.61775009E-02
     7.80400     0.59634489E-02
     7.81600     0.57506405E-02
     7.82800     0.55390033E-02
     7.84000     0.53284662E-02
     7.85200     0.51189594E-02
     7.86400     0.49104142E-02
     7.87600     0.47027633E-02
     7.88800     0.44959400E-02
     7.90000     0.42898789E-02
     7.91200     0.40845155E-02
     7.92400     0.38797858E-02
     7.93600     0.36756268E-02
     7.94800     0.34719762E-02
     7.96000     0.32687724E-02
     7.97200     0.30659540E-02
     7.98400     0.28634606E-02
     7.99600     0.26612319E-02
     8.00800     0.24592081E-02
     8.02000     0.22573300E-02
     8.03200     0.20555383E-02
     8.04400     0.18537742E-02
     8.05600     0.16519791E-02
     8.06800     0.14500945E-02
     8.08000     0.12480619E-02
     8.09200     0.10458232E-02
     8.10400     0.84331985E-03
     8.11600     0.64049364E-03
     8.12800     0.43728610E-03
     8.14000     0.23363869E-03
     8.15200     0.29492683E-04
     8.16400    -0.17521086E-03
     8.17600    -0.38053113E-03
     8.18800    -0.58652765E-03
     8.20000    -0.79326026E-03
     8.21200    -0.10007892E-02
     8.22400    -0.12091752E-02
     8.23600    -0.14184795E-02
     8.24800    -0.16287637E-02
     8.26000    -0.18400902E-02
     8.27200    -0.20525220E-02
     8.28400    -0.22661225E-02
     8.29600    -0.24809563E-02
     8.30800    -0.26970884E-02
     8.32000    -0.29145848E-02
     8.33200    -0.31335124E-02
     8.34400    -0.33539389E-02
     8.35600    -0.35759332E-02
     8.36800    -0.37995650E-02
     8.38000    -0.40249052E-02
     8.39200    -0.42520261E-02
     8.40400    -0.44810009E-02
     8.41600    -0.47119041E-02
     8.42800    -0.49448118E-02
     8.44000    -0.51798013E-02
     8.45200    -0.54169515E-02
     8.46400    -0.56563427E-02
     8.47600    -0.58980570E-02
     8.48800    -0.61421781E-02
     8.50000    -0.63887914E-02
     8.51200    -0.66379843E-02
     8.52400    -0.68898461E-02
     8.53600    -0.71444680E-02
     8.54800    -0.74019433E-02
     8.56000    -0.76623678E-02
     8.57200    -0.79258391E-02
     8.58400    -0.81924577E-02
     8.59600    -0.84623261E-02
     8.60800    -0.87355498E-02
     8.62000    -0.90122367E-02
     8.63200    -0.92924977E-02
     8.64400    -0.95764465E-02
     8.65600    -0.98642001E-02
     8.66800    -0.10155878E-01
     8.68000    -0.10451605E-01
     8.69200    -0.10751506E-01
     8.70400    -0.11055712E-01
     8.71600    -0.11364358E-01
     8.72800    -0.11677581E-01
     8.74000    -0.11995523E-01
     8.75200    -0.12318332E-01
     8.76400    -0.12646157E-01
     8.77600    -0.12979155E-01
     8.78800    -0.13317486E-01
     8.80000    -0.13661314E-01
     8.81200    -0.14010810E-01
     8.82400    -0.14366152E-01
     8.83600    -0.14727519E-01
     8.84800    -0.15095100E-01
     8.86000    -0.15469090E-01
     8.87200    -0.15849687E-01
     8.88400    -0.16237101E-01
     8.89600    -0.16631544E-01
     8.90800    -0.17033240E-01
     8.92000    -0.17442416E-01
     8.93200    -0.17859312E-01
     8.94400    -0.18284173E-01
     8.95600    -0.18717254E-01
     8.96800    -0.19158820E-01
     8.98000    -0.19609145E-01
     8.99200    -0.20068512E-01
     9.00400    -0.20537218E-01
