     4.00000      120.08660     126.258
     4.01200      124.28523     130.925
     4.02400      128.69570     135.809
     4.03600      133.33371     140.925
     4.04800      138.21659     146.291
     4.06000      143.36356     151.927
     4.07200      148.79598     157.853
     4.08400      154.53769     164.095
     4.09600      160.61546     170.678
     4.10800      167.05946     177.633
     4.12000      173.90387     184.995
     4.13200      181.18770     192.803
     4.14400      188.95567     201.102
     4.15600      197.25948     209.944
     4.16800      206.15925     219.388
     4.18000      215.72541     229.506
     4.19200      226.04101     240.382
     4.20400      237.20466     252.113
     4.21600      249.33406     264.818
     4.22800      262.57041     278.638
     4.24000      277.08367     293.743
     4.25200      293.07890     310.34
     4.26400      310.80366     328.675
     4.27600      330.55655     349.048
     4.28800      352.69675     371.818
     4.30000      377.65454     397.415
     4.31200      405.94228     426.353
     4.32400      438.16555     459.237
     4.33600      475.03367     496.777
     4.34800      517.36874     539.795
     4.36000      566.11218     589.233
     4.37200      622.32750     646.156
     4.38400      687.19801     711.746
     4.39600      762.01831     787.299
     4.40800      848.17828     874.204
     4.42000      947.13890     973.925
     4.43200      1060.3995     1087.96
     4.44400      1189.4567     1217.8
     4.45600      1335.7564     1364.91
     4.46800      1500.6396     1530.61
     4.48000      1685.2865     1716.09
     4.49200      1890.6600     1922.32
     4.50400      2117.4545     2149.98
     4.51600      2366.0514     2399.47
     4.52800      2636.4878     2670.81
     4.54000      2928.4389     2963.68
     4.55200      3241.2179     3277.41
     4.56400      3573.7927     3610.95
     4.57600      3924.8198     3962.96
     4.58800      4292.6919     4331.84
     4.60000      4675.5958     4715.77
     4.61200      5071.5758     5112.81
     4.62400      5478.5967     5520.91
     4.63600      5894.6013     5938.01
     4.64800      6317.5572     6362.1
     4.66000      6745.4897     6791.19
     4.67200      7176.4990     7223.38
     4.68400      7608.7608     7656.86
     4.69600      8040.5141     8089.85
     4.70800      8470.0384     8520.65
     4.72000      8895.6258     8947.54
     4.73200      9315.5533     9368.81
     4.74400      9728.0611     9782.7
     4.75600      10131.341     10187.4
     4.76800      10523.538     10581
     4.78000      10902.764     10961.7
     4.79200      11267.130     11327.6
     4.80400      11614.783     11676.9
     4.81600      11943.956     12007.7
     4.82800      12253.011     12318.4
     4.84000      12540.491     12607.6
     4.85200      12805.149     12874
     4.86400      13045.979     13116.6
     4.87600      13262.224     13334.8
     4.88800      13453.375     13527.8
     4.90000      13619.151     13695.6
     4.91200      13759.477     13838
     4.92400      13874.448     13955.1
     4.93600      13964.298     14047.1
     4.94800      14029.359     14114.5
     4.96000      14070.040     14157.5
     4.97200      14086.804     14176.7
     4.98400      14080.153     14172.6
     4.99600      14050.632     14145.7
     5.00800      13998.823     14096.6
     5.02000      13925.364     14026
     5.03200      13830.952     13934.5
     5.04400      13716.360     13823
     5.05600      13582.442     13692.2
     5.06800      13430.138     13543.2
     5.08000      13260.470     13377
     5.09200      13074.537     13194.6
     5.10400      12873.495     12997.3
     5.11600      12658.548     12786.3
     5.12800      12430.923     12562.7
     5.14000      12191.849     12327.8
     5.15200      11942.544     12082.9
     5.16400      11684.195     11829.2
     5.17600      11417.950     11567.8
     5.18800      11144.907     11299.7
     5.20000      10866.113     11026.2
     5.21200      10582.567     10748.2
     5.22400      10295.216     10466.6
     5.23600      10004.964     10182.4
     5.24800      9712.6782     9896.49
     5.26000      9419.1870     9609.72
     5.27200      9125.2870     9322.92
     5.28400      8831.7425     9036.9
     5.29600      8539.2847     8752.42
     5.30800      8248.6092     8470.23
     5.32000      7960.3730     8191.06
     5.33200      7675.1905     7915.59
     5.34400      7393.6302     7644.48
     5.35600      7116.2110     7378.34
     5.36800      6843.4013     7117.77
     5.38000      6575.6175     6863.34
     5.39200      6313.2249     6615.57
     5.40400      6056.5400     6375
     5.41600      5805.8326     6142.15
     5.42800      5561.3300     5917.55
     5.44000      5323.2203     5701.72
     5.45200      5091.6563     5495.22
     5.46400      4866.7590     5298.65
     5.47600      4648.6207     5112.63
     5.48800      4437.3073     4937.83
     5.50000      4232.8604     4774.96
     5.51200      4035.2986     4624.77
     5.52400      3844.6186     4488.05
     5.53600      3660.7964     4365.62
     5.54800      3483.7879     4258.28
     5.56000      3313.5300     4166.87
     5.57200      3149.9416     4092.17
     5.58400      2992.9250     4034.91
     5.59600      2842.3676     3995.79
     5.60800      2698.1430     3975.37
     5.62000      2560.1137     3974.13
     5.63200      2428.1320     3992.4
     5.64400      2302.0427     4030.41
     5.65600      2181.6838     4088.2
     5.66800      2066.8891     4165.72
     5.68000      1957.4884     4262.75
     5.69200      1853.3095     4378.98
     5.70400      1754.1787     4513.99
     5.71600      1659.9215     4667.26
     5.72800      1570.3636     4838.22
     5.74000      1485.3309     5026.25
     5.75200      1404.6505     5230.7
     5.76400      1328.1507     5450.87
     5.77600      1255.6616     5686.02
     5.78800      1187.0156     5935.4
     5.80000      1122.0476     6198.17
     5.81200      1060.5954     6473.45
     5.82400      1002.5005     6760.26
     5.83600      947.60776     7057.55
     5.84800      895.76642     7364.16
     5.86000      846.82984     7678.83
     5.87200      800.65596     8000.21
     5.88400      757.10738     8326.91
     5.89600      716.05150     8657.48
     5.90800      677.36050     8990.45
     5.92000      640.91140     9324.39
     5.93200      606.58601     9657.95
     5.94400      574.27089     9989.83
     5.95600      543.85725     10318.9
     5.96800      515.24091     10644.1
     5.98000      488.32217     10964.7
     5.99200      463.00577     11279.8
     6.00400      439.20075     11588.9
     6.01600      416.82038     11891.5
     6.02800      395.78208     12187.3
     6.04000      376.00728     12475.8
     6.05200      357.42132     12756.8
     6.06400      339.95336     13030.1
     6.07600      323.53626     13295.3
     6.08800      308.10641     13552.2
     6.10000      293.60365     13800.3
     6.11200      279.97109     14039.5
     6.12400      267.15502     14269.2
     6.13600      255.10474     14489.1
     6.14800      243.77241     14698.9
     6.16000      233.11298     14898
     6.17200      223.08399     15086.3
     6.18400      213.64546     15263.4
     6.19600      204.75980     15429.1
     6.20800      196.39166     15583.1
     6.22000      188.50784     15725.4
     6.23200      181.07715     15855.8
     6.24400      174.07033     15974.5
     6.25600      167.45994     16081.5
     6.26800      161.22028     16177
     6.28000      155.32724     16261.1
     6.29200      149.75830     16334.1
     6.30400      144.49235     16396.1
     6.31600      139.50966     16447.6
     6.32800      134.79179     16488.5
     6.34000      130.32149     16519.2
     6.35200      126.08267     16539.6
     6.36400      122.06028     16550
     6.37600      118.24028     16550.2
     6.38800      114.60957     16540.2
     6.40000      111.15592     16519.9
     6.41200      107.86792     16489.2
     6.42400      104.73493     16448
     6.43600      101.74703     16396.3
     6.44800      98.894967     16334
     6.46000      96.170124     16261.2
     6.47200      93.564468     16178
     6.48400      91.070511     16084.6
     6.49600      88.681279     15981.3
     6.50800      86.390274     15868.6
     6.52000      84.191442     15746.7
     6.53200      82.079141     15616.1
     6.54400      80.048117     15477.2
     6.55600      78.093473     15330.4
     6.56800      76.210644     15176
     6.58000      74.395379     15014.3
     6.59200      72.643711     14845.5
     6.60400      70.951944     14669.9
     6.61600      69.316630     14487.4
     6.62800      67.734553     14298.4
     6.64000      66.202713     14102.8
     6.65200      64.718307     13901
     6.66400      63.278721     13693
     6.67600      61.881512     13479.2
     6.68800      60.524396     13259.9
     6.70000      59.205239     13035.5
     6.71200      57.922045     12806.5
     6.72400      56.672946     12573.3
     6.73600      55.456192     12336.5
     6.74800      54.270144     12096.6
     6.76000      53.113265     11854
     6.77200      51.984114     11609.3
     6.78400      50.881337     11362.9
     6.79600      49.803662     11115
     6.80800      48.749894     10866.1
     6.82000      47.718909     10616.4
     6.83200      46.709647     10366.2
     6.84400      45.721109     10115.6
     6.85600      44.752354     9865.08
     6.86800      43.802493     9614.72
     6.88000      42.870687     9364.83
     6.89200      41.956139     9115.71
     6.90400      41.058099     8867.66
     6.91600      40.175854     8621.03
     6.92800      39.308727     8376.15
     6.94000      38.456077     8133.35
     6.95200      37.617294     7892.97
     6.96400      36.791797     7655.3
     6.97600      35.979034     7420.63
     6.98800      35.178479     7189.18
     7.00000      34.389627     6961.18
     7.01200      33.611999     6736.78
     7.02400      32.845136     6516.14
     7.03600      32.088597     6299.35
     7.04800      31.341963     6086.53
     7.06000      30.604827     5877.75
     7.07200      29.876803     5673.09
     7.08400      29.157518     5472.63
     7.09600      28.446611     5276.46
     7.10800      27.743738     5084.64
     7.12000      27.048565     4897.25
     7.13200      26.360771     4714.39
     7.14400      25.680044     4536.1
     7.15600      25.006083     4362.45
     7.16800      24.338597     4193.49
     7.18000      23.677305     4029.23
     7.19200      23.021932     3869.71
     7.20400      22.372213     3714.89
     7.21600      21.727890     3564.77
     7.22800      21.088710     3419.3
     7.24000      20.454429     3278.43
     7.25200      19.824809     3142.09
     7.26400      19.199617     3010.23
     7.27600      18.578625     2882.78
     7.28800      17.961611     2759.65
     7.30000      17.348358     2640.79
     7.31200      16.738653     2526.11
     7.32400      16.132287     2415.54
     7.33600      15.529055     2309.02
     7.34800      14.928756     2206.47
     7.36000      14.331192     2107.8
     7.37200      13.736170     2012.94
     7.38400      13.143496     1921.81
     7.39600      12.552983     1834.31
     7.40800      11.964444     1750.34
     7.42000      11.377696     1669.82
     7.43200      10.792557     1592.64
     7.44400      10.208846     1518.69
     7.45600      9.6263875     1447.87
     7.46800      9.0450037     1380.09
     7.48000      8.4645202     1315.24
     7.49200      7.8847637     1253.21
     7.50400      7.3055619     1193.92
     7.51600      6.7267435     1137.26
     7.52800      6.1481382     1083.15
     7.54000      5.5695763     1031.48
     7.55200      4.9908887     982.185
     7.56400      4.4119068     935.163
     7.57600      3.8324621     890.331
     7.58800      3.2523865     847.604
     7.60000      2.6715116     806.899
     7.61200      2.0896693     768.133
     7.62400      1.5066910     731.226
     7.63600     0.92240767     696.099
     7.64800     0.33664988     662.673
     7.66000    -0.25075247     630.873
     7.67200    -0.83997025     600.626
     7.68400     -1.4311753     571.861
     7.69600     -2.0245403     544.51
     7.70800     -2.6202394     518.507
     7.72000     -3.2184479     493.79
     7.73200     -3.8193425     470.298
     7.74400     -4.4231015     447.973
     7.75600     -5.0299050     426.759
     7.76800     -5.6399349     406.602
     7.78000     -6.2533751     387.45
     7.79200     -6.8704116     369.254
     7.80400     -7.4912327     351.967
     7.81600     -8.1160293     335.54
     7.82800     -8.7449947     319.931
     7.84000     -9.3783249     305.097
     7.85200     -10.016219     290.996
     7.86400     -10.658879     277.591
     7.87600     -11.306511     264.842
     7.88800     -11.959322     252.716
     7.90000     -12.617526     241.177
     7.91200     -13.281338     230.195
     7.92400     -13.950978     219.738
     7.93600     -14.626671     209.776
     7.94800     -15.308645     200.284
     7.96000     -15.997133     191.233
     7.97200     -16.692373     182.6
     7.98400     -17.394607     174.361
     7.99600     -18.104084     166.492
     8.00800     -18.821056     158.974
     8.02000     -19.545783     151.784
     8.03200     -20.278530     144.905
     8.04400     -21.019567     138.317
     8.05600     -21.769173     132.003
     8.06800     -22.527630     125.947
     8.08000     -23.295232     120.133
     8.09200     -24.072275     114.546
     8.10400     -24.859066     109.172
     8.11600     -25.655919     103.999
     8.12800     -26.463157     99.0128
     8.14000     -27.281109     94.2028
     8.15200     -28.110117     89.5574
     8.16400     -28.950528     85.0663
     8.17600     -29.802703     80.7193
     8.18800     -30.667009     76.5073
     8.20000     -31.543827     72.4211
     8.21200     -32.433548     68.4525
     8.22400     -33.336573     64.5934
     8.23600     -34.253317     60.8363
     8.24800     -35.184207     57.1741
     8.26000     -36.129682     53.5999
     8.27200     -37.090195     50.1075
     8.28400     -38.066215     46.6907
     8.29600     -39.058223     43.3438
     8.30800     -40.066718     40.0613
     8.32000     -41.092213     36.8381
     8.33200     -42.135239     33.6693
     8.34400     -43.196345     30.5503
     8.35600     -44.276098     27.4766
     8.36800     -45.375083     24.4439
     8.38000     -46.493907     21.4484
     8.39200     -47.633197     18.4861
     8.40400     -48.793601     15.5534
     8.41600     -49.975792     12.6468
     8.42800     -51.180466     9.7629
     8.44000     -52.408344     6.89845
     8.45200     -53.660172     4.05035
     8.46400     -54.936727     1.21558
     8.47600     -56.238811     -1.60875
     8.48800     -57.567259     -4.42545
     8.50000     -58.922937     -7.23727
     8.51200     -60.306743     -10.0468
     8.52400     -61.719611     -12.8568
     8.53600     -63.162512     -15.6696
     8.54800     -64.636454     -18.4878
     8.56000     -66.142486     -21.3139
     8.57200     -67.681700     -24.1501
     8.58400     -69.255233     -26.999
     8.59600     -70.864266     -29.8628
     8.60800     -72.510033     -32.744
     8.62000     -74.193817     -35.6449
     8.63200     -75.916958     -38.5677
     8.64400     -77.680851     -41.515
     8.65600     -79.486955     -44.489
     8.66800     -81.336789     -47.4921
     8.68000     -83.231944     -50.5267
     8.69200     -85.174079     -53.5953
     8.70400     -87.164930     -56.7004
     8.71600     -89.206311     -59.8445
     8.72800     -91.300124     -63.0302
     8.74000     -93.448356     -66.26
     8.75200     -95.653090     -69.5369
     8.76400     -97.916510     -72.8634
     8.77600     -100.24091     -76.2425
     8.78800     -102.62868     -79.6772
     8.80000     -105.08235     -83.1705
     8.81200     -107.60457     -86.7256
     8.82400     -110.19812     -90.3457
     8.83600     -112.86592     -94.0343
     8.84800     -115.61107     -97.7949
     8.86000     -118.43680     -101.631
     8.87200     -121.34652     -105.547
     8.88400     -124.34385     -109.547
     8.89600     -127.43258     -113.634
     8.90800     -130.61673     -117.814
     8.92000     -133.90054     -122.091
     8.93200     -137.28849     -126.469
     8.94400     -140.78532     -130.954
     8.95600     -144.39606     -135.552
     8.96800     -148.12604     -140.268
     8.98000     -151.98091     -145.108
     8.99200     -155.96665     -150.078
     9.00400     -160.08966     -155.185
