126.258
130.925
135.809
140.925
146.291
151.927
157.853
164.095
170.678
177.633
184.995
192.803
201.102
209.944
219.388
229.506
240.382
252.113
264.818
278.638
293.743
310.34
328.675
349.048
371.818
397.415
426.353
459.237
496.777
539.795
589.233
646.156
711.746
787.299
874.204
973.925
1087.96
1217.8
1364.91
1530.61
1716.09
1922.32
2149.98
2399.47
2670.81
2963.68
3277.41
3610.95
3962.96
4331.84
4715.77
5112.81
5520.91
5938.01
6362.1
6791.19
7223.38
7656.86
8089.85
8520.65
8947.54
9368.81
9782.7
10187.4
10581
10961.7
11327.6
11676.9
12007.7
12318.4
12607.6
12874
13116.6
13334.8
13527.8
13695.6
13838
13955.1
14047.1
14114.5
14157.5
14176.7
14172.6
14145.7
14096.6
14026
13934.5
13823
13692.2
13543.2
13377
13194.6
12997.3
12786.3
12562.7
12327.8
12082.9
11829.2
11567.8
11299.7
11026.2
10748.2
10466.6
10182.4
9896.49
9609.72
9322.92
9036.9
8752.42
8470.23
8191.06
7915.59
7644.48
7378.34
7117.77
6863.34
6615.57
6375
6142.15
5917.55
5701.72
5495.22
5298.65
5112.63
4937.83
4774.96
4624.77
4488.05
4365.62
4258.28
4166.87
4092.17
4034.91
3995.79
3975.37
3974.13
3992.4
4030.41
4088.2
4165.72
4262.75
4378.98
4513.99
4667.26
4838.22
5026.25
5230.7
5450.87
5686.02
5935.4
6198.17
6473.45
6760.26
7057.55
7364.16
7678.83
8000.21
8326.91
8657.48
8990.45
9324.39
9657.95
9989.83
10318.9
10644.1
10964.7
11279.8
11588.9
11891.5
12187.3
12475.8
12756.8
13030.1
13295.3
13552.2
13800.3
14039.5
14269.2
14489.1
14698.9
14898
15086.3
15263.4
15429.1
15583.1
15725.4
15855.8
15974.5
16081.5
16177
16261.1
16334.1
16396.1
16447.6
16488.5
16519.2
16539.6
16550
16550.2
16540.2
16519.9
16489.2
16448
16396.3
16334
16261.2
16178
16084.6
15981.3
15868.6
15746.7
15616.1
15477.2
15330.4
15176
15014.3
14845.5
14669.9
14487.4
14298.4
14102.8
13901
13693
13479.2
13259.9
13035.5
12806.5
12573.3
12336.5
12096.6
11854
11609.3
11362.9
11115
10866.1
10616.4
10366.2
10115.6
9865.08
9614.72
9364.83
9115.71
8867.66
8621.03
8376.15
8133.35
7892.97
7655.3
7420.63
7189.18
6961.18
6736.78
6516.14
6299.35
6086.53
5877.75
5673.09
5472.63
5276.46
5084.64
4897.25
4714.39
4536.1
4362.45
4193.49
4029.23
3869.71
3714.89
3564.77
3419.3
3278.43
3142.09
3010.23
2882.78
2759.65
2640.79
2526.11
2415.54
2309.02
2206.47
2107.8
2012.94
1921.81
1834.31
1750.34
1669.82
1592.64
1518.69
1447.87
1380.09
1315.24
1253.21
1193.92
1137.26
1083.15
1031.48
982.185
935.163
890.331
847.604
806.899
768.133
731.226
696.099
662.673
630.873
600.626
571.861
544.51
518.507
493.79
470.298
447.973
426.759
406.602
387.45
369.254
351.967
335.54
319.931
305.097
290.996
277.591
264.842
252.716
241.177
230.195
219.738
209.776
200.284
191.233
182.6
174.361
166.492
158.974
151.784
144.905
138.317
132.003
125.947
120.133
114.546
109.172
103.999
99.0128
94.2028
89.5574
85.0663
80.7193
76.5073
72.4211
68.4525
64.5934
60.8363
57.1741
53.5999
50.1075
46.6907
43.3438
40.0613
36.8381
33.6693
30.5503
27.4766
24.4439
21.4484
18.4861
15.5534
12.6468
9.7629
6.89845
4.05035
1.21558
-1.60875
-4.42545
-7.23727
-10.0468
-12.8568
-15.6696
-18.4878
-21.3139
-24.1501
-26.999
-29.8628
-32.744
-35.6449
-38.5677
-41.515
-44.489
-47.4921
-50.5267
-53.5953
-56.7004
-59.8445
-63.0302
-66.26
-69.5369
-72.8634
-76.2425
-79.6772
-83.1705
-86.7256
-90.3457
-94.0343
-97.7949
-101.631
-105.547
-109.547
-113.634
-117.814
-122.091
-126.469
-130.954
-135.552
-140.268
-145.108
-150.078
-155.185
