  32262.1600     0.18419E-05 
  32302.4877     0.20212E-05 
  32342.8154     0.22112E-05 
  32383.1431     0.24120E-05 
  32423.4708     0.26238E-05 
  32463.7985     0.28469E-05 
  32504.1262     0.30813E-05 
  32544.4539     0.33273E-05 
  32584.7816     0.35852E-05 
  32625.1093     0.38550E-05 
  32665.4370     0.41370E-05 
  32705.7647     0.44314E-05 
  32746.0924     0.47385E-05 
  32786.4201     0.50584E-05 
  32826.7478     0.53914E-05 
  32867.0755     0.57376E-05 
  32907.4032     0.60974E-05 
  32947.7309     0.64709E-05 
  32988.0586     0.68584E-05 
  33028.3863     0.72602E-05 
  33068.7140     0.76765E-05 
  33109.0417     0.81075E-05 
  33149.3694     0.85535E-05 
  33189.6971     0.90148E-05 
  33230.0248     0.94916E-05 
  33270.3525     0.99842E-05 
  33310.6802     0.10493E-04 
  33351.0079     0.11018E-04 
  33391.3356     0.11560E-04 
  33431.6633     0.12119E-04 
  33471.9910     0.12695E-04 
  33512.3187     0.13288E-04 
  33552.6464     0.13900E-04 
  33592.9741     0.14529E-04 
  33633.3018     0.15178E-04 
  33673.6295     0.15845E-04 
  33713.9572     0.16531E-04 
  33754.2849     0.17237E-04 
  33794.6126     0.17963E-04 
  33834.9403     0.18709E-04 
  33875.2680     0.19476E-04 
  33915.5957     0.20263E-04 
  33955.9234     0.21072E-04 
  33996.2511     0.21903E-04 
  34036.5788     0.22757E-04 
  34076.9065     0.23632E-04 
  34117.2342     0.24531E-04 
  34157.5619     0.25453E-04 
  34197.8896     0.26399E-04 
  34238.2173     0.27370E-04 
  34278.5450     0.28365E-04 
  34318.8727     0.29385E-04 
  34359.2004     0.30431E-04 
  34399.5281     0.31504E-04 
  34439.8558     0.32602E-04 
  34480.1835     0.33728E-04 
  34520.5112     0.34882E-04 
  34560.8389     0.36064E-04 
  34601.1666     0.37274E-04 
  34641.4943     0.38514E-04 
  34681.8220     0.39783E-04 
  34722.1497     0.41083E-04 
  34762.4774     0.42413E-04 
  34802.8051     0.43775E-04 
  34843.1328     0.45169E-04 
  34883.4605     0.46596E-04 
  34923.7882     0.48056E-04 
  34964.1159     0.49550E-04 
  35004.4436     0.51079E-04 
  35044.7713     0.52642E-04 
  35085.0990     0.54242E-04 
  35125.4267     0.55878E-04 
  35165.7544     0.57551E-04 
  35206.0821     0.59262E-04 
  35246.4098     0.61012E-04 
  35286.7375     0.62802E-04 
  35327.0652     0.64631E-04 
  35367.3929     0.66502E-04 
  35407.7206     0.68414E-04 
  35448.0483     0.70368E-04 
  35488.3760     0.72367E-04 
  35528.7037     0.74409E-04 
  35569.0314     0.76496E-04 
  35609.3591     0.78629E-04 
  35649.6868     0.80809E-04 
  35690.0145     0.83037E-04 
  35730.3422     0.85313E-04 
  35770.6699     0.87639E-04 
  35810.9976     0.90015E-04 
  35851.3253     0.92443E-04 
  35891.6530     0.94924E-04 
  35931.9807     0.97458E-04 
  35972.3084     0.10005E-03 
  36012.6361     0.10269E-03 
  36052.9638     0.10539E-03 
  36093.2915     0.10815E-03 
  36133.6192     0.11097E-03 
  36173.9469     0.11385E-03 
  36214.2746     0.11679E-03 
  36254.6023     0.11979E-03 
  36294.9300     0.12285E-03 
  36335.2577     0.12599E-03 
  36375.5854     0.12918E-03 
  36415.9131     0.13245E-03 
  36456.2408     0.13578E-03 
  36496.5685     0.13919E-03 
  36536.8962     0.14266E-03 
  36577.2239     0.14621E-03 
  36617.5516     0.14984E-03 
  36657.8793     0.15354E-03 
  36698.2070     0.15732E-03 
  36738.5347     0.16118E-03 
  36778.8624     0.16512E-03 
  36819.1901     0.16914E-03 
  36859.5178     0.17324E-03 
  36899.8455     0.17744E-03 
  36940.1732     0.18172E-03 
  36980.5009     0.18609E-03 
  37020.8286     0.19055E-03 
  37061.1563     0.19510E-03 
  37101.4840     0.19975E-03 
  37141.8117     0.20450E-03 
  37182.1394     0.20935E-03 
  37222.4671     0.21429E-03 
  37262.7948     0.21934E-03 
  37303.1225     0.22450E-03 
  37343.4502     0.22976E-03 
  37383.7779     0.23514E-03 
  37424.1056     0.24062E-03 
  37464.4333     0.24622E-03 
  37504.7610     0.25194E-03 
  37545.0887     0.25778E-03 
  37585.4164     0.26374E-03 
  37625.7441     0.26982E-03 
  37666.0718     0.27603E-03 
  37706.3995     0.28237E-03 
  37746.7272     0.28884E-03 
  37787.0549     0.29545E-03 
  37827.3826     0.30220E-03 
  37867.7103     0.30908E-03 
  37908.0380     0.31611E-03 
  37948.3657     0.32329E-03 
  37988.6934     0.33062E-03 
  38029.0211     0.33810E-03 
  38069.3488     0.34574E-03 
  38109.6765     0.35354E-03 
  38150.0042     0.36150E-03 
  38190.3319     0.36963E-03 
  38230.6596     0.37793E-03 
  38270.9873     0.38641E-03 
  38311.3150     0.39506E-03 
  38351.6427     0.40390E-03 
  38391.9704     0.41292E-03 
  38432.2981     0.42214E-03 
  38472.6258     0.43154E-03 
  38512.9535     0.44115E-03 
  38553.2812     0.45096E-03 
  38593.6089     0.46098E-03 
  38633.9366     0.47121E-03 
  38674.2643     0.48165E-03 
  38714.5920     0.49232E-03 
  38754.9197     0.50322E-03 
  38795.2474     0.51434E-03 
  38835.5751     0.52571E-03 
  38875.9028     0.53732E-03 
  38916.2305     0.54917E-03 
  38956.5582     0.56128E-03 
  38996.8859     0.57365E-03 
  39037.2136     0.58628E-03 
  39077.5413     0.59918E-03 
  39117.8690     0.61236E-03 
  39158.1967     0.62583E-03 
  39198.5244     0.63958E-03 
  39238.8521     0.65363E-03 
  39279.1798     0.66799E-03 
  39319.5075     0.68265E-03 
  39359.8352     0.69763E-03 
  39400.1629     0.71294E-03 
  39440.4906     0.72858E-03 
  39480.8183     0.74457E-03 
  39521.1460     0.76090E-03 
  39561.4737     0.77758E-03 
  39601.8014     0.79463E-03 
  39642.1291     0.81206E-03 
  39682.4568     0.82987E-03 
  39722.7845     0.84807E-03 
  39763.1122     0.86667E-03 
  39803.4399     0.88568E-03 
  39843.7676     0.90511E-03 
  39884.0953     0.92497E-03 
  39924.4230     0.94527E-03 
  39964.7507     0.96602E-03 
  40005.0784     0.98724E-03 
  40045.4061     0.10089E-02 
  40085.7338     0.10311E-02 
  40126.0615     0.10538E-02 
  40166.3892     0.10769E-02 
  40206.7169     0.11006E-02 
  40247.0446     0.11249E-02 
  40287.3723     0.11497E-02 
  40327.7000     0.11750E-02 
  40368.0277     0.12009E-02 
  40408.3554     0.12274E-02 
  40448.6831     0.12545E-02 
  40489.0108     0.12822E-02 
  40529.3385     0.13106E-02 
  40569.6662     0.13396E-02 
  40609.9939     0.13693E-02 
  40650.3216     0.13996E-02 
  40690.6493     0.14307E-02 
  40730.9770     0.14625E-02 
  40771.3047     0.14950E-02 
  40811.6324     0.15283E-02 
  40851.9601     0.15623E-02 
  40892.2878     0.15972E-02 
  40932.6155     0.16328E-02 
  40972.9432     0.16693E-02 
  41013.2709     0.17067E-02 
  41053.5986     0.17449E-02 
  41093.9263     0.17840E-02 
  41134.2540     0.18241E-02 
  41174.5817     0.18651E-02 
  41214.9094     0.19071E-02 
  41255.2371     0.19501E-02 
  41295.5648     0.19941E-02 
  41335.8925     0.20392E-02 
  41376.2202     0.20854E-02 
  41416.5479     0.21327E-02 
  41456.8756     0.21811E-02 
  41497.2033     0.22307E-02 
  41537.5310     0.22815E-02 
  41577.8587     0.23336E-02 
  41618.1864     0.23869E-02 
  41658.5141     0.24416E-02 
  41698.8418     0.24975E-02 
  41739.1695     0.25549E-02 
  41779.4972     0.26137E-02 
  41819.8249     0.26740E-02 
  41860.1526     0.27357E-02 
  41900.4803     0.27990E-02 
  41940.8080     0.28639E-02 
  41981.1357     0.29305E-02 
  42021.4634     0.29987E-02 
  42061.7911     0.30686E-02 
  42102.1188     0.31403E-02 
  42142.4465     0.32139E-02 
  42182.7742     0.32893E-02 
  42223.1019     0.33667E-02 
  42263.4296     0.34460E-02 
  42303.7573     0.35275E-02 
  42344.0850     0.36110E-02 
  42384.4127     0.36967E-02 
  42424.7404     0.37846E-02 
  42465.0681     0.38748E-02 
  42505.3958     0.39675E-02 
  42545.7235     0.40625E-02 
  42586.0512     0.41601E-02 
  42626.3789     0.42602E-02 
  42666.7066     0.43631E-02 
  42707.0343     0.44687E-02 
  42747.3620     0.45771E-02 
  42787.6897     0.46884E-02 
  42828.0174     0.48028E-02 
  42868.3451     0.49203E-02 
  42908.6728     0.50410E-02 
  42949.0005     0.51649E-02 
  42989.3282     0.52923E-02 
  43029.6559     0.54233E-02 
  43069.9836     0.55578E-02 
  43110.3113     0.56961E-02 
  43150.6390     0.58382E-02 
  43190.9667     0.59843E-02 
  43231.2944     0.61346E-02 
  43271.6221     0.62891E-02 
  43311.9498     0.64480E-02 
  43352.2775     0.66114E-02 
  43392.6052     0.67795E-02 
  43432.9329     0.69524E-02 
  43473.2606     0.71303E-02 
  43513.5883     0.73134E-02 
  43553.9160     0.75018E-02 
  43594.2437     0.76957E-02 
  43634.5714     0.78953E-02 
  43674.8991     0.81009E-02 
  43715.2268     0.83125E-02 
  43755.5545     0.85304E-02 
  43795.8822     0.87548E-02 
  43836.2099     0.89860E-02 
  43876.5376     0.92242E-02 
  43916.8653     0.94696E-02 
  43957.1930     0.97225E-02 
  43997.5207     0.99832E-02 
  44037.8484     0.10252E-01 
  44078.1761     0.10529E-01 
  44118.5038     0.10814E-01 
  44158.8315     0.11109E-01 
  44199.1592     0.11413E-01 
  44239.4869     0.11726E-01 
  44279.8146     0.12049E-01 
  44320.1423     0.12383E-01 
  44360.4700     0.12727E-01 
  44400.7977     0.13083E-01 
  44441.1254     0.13450E-01 
  44481.4531     0.13829E-01 
  44521.7808     0.14220E-01 
  44562.1085     0.14624E-01 
  44602.4362     0.15042E-01 
  44642.7639     0.15473E-01 
  44683.0916     0.15919E-01 
  44723.4193     0.16380E-01 
  44763.7470     0.16857E-01 
  44804.0747     0.17350E-01 
  44844.4024     0.17860E-01 
  44884.7301     0.18387E-01 
  44925.0578     0.18933E-01 
  44965.3855     0.19497E-01 
  45005.7132     0.20082E-01 
  45046.0409     0.20687E-01 
  45086.3686     0.21313E-01 
  45126.6963     0.21962E-01 
  45167.0240     0.22635E-01 
  45207.3517     0.23331E-01 
  45247.6794     0.24053E-01 
  45288.0071     0.24802E-01 
  45328.3348     0.25578E-01 
  45368.6625     0.26383E-01 
  45408.9902     0.27218E-01 
  45449.3179     0.28085E-01 
  45489.6456     0.28984E-01 
  45529.9733     0.29918E-01 
  45570.3010     0.30888E-01 
  45610.6287     0.31895E-01 
  45650.9564     0.32941E-01 
  45691.2841     0.34029E-01 
  45731.6118     0.35160E-01 
  45771.9395     0.36335E-01 
  45812.2672     0.37558E-01 
  45852.5949     0.38831E-01 
  45892.9226     0.40155E-01 
  45933.2503     0.41534E-01 
  45973.5780     0.42969E-01 
  46013.9057     0.44465E-01 
  46054.2334     0.46023E-01 
  46094.5611     0.47648E-01 
  46134.8888     0.49342E-01 
  46175.2165     0.51109E-01 
  46215.5442     0.52953E-01 
  46255.8719     0.54877E-01 
  46296.1996     0.56887E-01 
  46336.5273     0.58986E-01 
  46376.8550     0.61180E-01 
  46417.1827     0.63473E-01 
  46457.5104     0.65871E-01 
  46497.8381     0.68380E-01 
  46538.1658     0.71006E-01 
  46578.4935     0.73755E-01 
  46618.8212     0.76635E-01 
  46659.1489     0.79654E-01 
  46699.4766     0.82818E-01 
  46739.8043     0.86137E-01 
  46780.1320     0.89620E-01 
  46820.4597     0.93276E-01 
  46860.7874     0.97118E-01 
  46901.1151     0.10115E+00 
  46941.4428     0.10540E+00 
  46981.7705     0.10986E+00 
  47022.0982     0.11456E+00 
  47062.4259     0.11951E+00 
  47102.7536     0.12473E+00 
  47143.0813     0.13023E+00 
  47183.4090     0.13603E+00 
  47223.7367     0.14216E+00 
  47264.0644     0.14863E+00 
  47304.3921     0.15546E+00 
  47344.7198     0.16270E+00 
  47385.0475     0.17035E+00 
  47425.3752     0.17846E+00 
  47465.7029     0.18706E+00 
  47506.0306     0.19617E+00 
  47546.3583     0.20585E+00 
  47586.6860     0.21613E+00 
  47627.0137     0.22706E+00 
  47667.3414     0.23870E+00 
  47707.6691     0.25108E+00 
  47747.9968     0.26429E+00 
  47788.3245     0.27838E+00 
  47828.6522     0.29343E+00 
  47868.9799     0.30952E+00 
  47909.3076     0.32674E+00 
  47949.6353     0.34519E+00 
  47989.9630     0.36497E+00 
  48030.2907     0.38621E+00 
  48070.6184     0.40904E+00 
  48110.9461     0.43362E+00 
  48151.2738     0.46010E+00 
  48191.6015     0.48868E+00 
  48231.9292     0.51955E+00 
  48272.2569     0.55296E+00 
  48312.5846     0.58917E+00 
  48352.9123     0.62847E+00 
  48393.2400     0.67119E+00 
  48433.5677     0.71771E+00 
  48473.8954     0.76846E+00 
  48514.2231     0.82392E+00 
  48554.5508     0.88464E+00 
  48594.8785     0.95126E+00 
  48635.2062     0.10245E+01 
  48675.5339     0.11052E+01 
  48715.8616     0.11943E+01 
  48756.1893     0.12929E+01 
  48796.5170     0.14024E+01 
  48836.8447     0.15242E+01 
  48877.1724     0.16600E+01 
  48917.5001     0.18119E+01 
  48957.8278     0.19824E+01 
  48998.1555     0.21742E+01 
  49038.4832     0.23905E+01 
  49078.8109     0.26354E+01 
  49119.1386     0.29134E+01 
  49159.4663     0.32298E+01 
  49199.7940     0.35909E+01 
  49240.1217     0.40037E+01 
  49280.4494     0.44765E+01 
  49320.7771     0.50183E+01 
  49361.1048     0.56387E+01 
  49401.4325     0.63478E+01 
  49441.7602     0.71550E+01 
  49482.0879     0.80686E+01 
  49522.4156     0.90944E+01 
  49562.7433     0.10235E+02 
  49603.0710     0.11487E+02 
  49643.3987     0.12843E+02 
  49683.7264     0.14289E+02 
  49724.0541     0.15804E+02 
  49764.3818     0.17360E+02 
  49804.7095     0.18926E+02 
  49845.0372     0.20466E+02 
  49885.3649     0.21941E+02 
  49925.6926     0.23312E+02 
  49966.0203     0.24543E+02 
  50006.3480     0.25601E+02 
  50046.6757     0.26457E+02 
  50087.0034     0.27093E+02 
  50127.3311     0.27496E+02 
  50167.6588     0.27662E+02 
  50207.9865     0.27597E+02 
  50248.3142     0.27313E+02 
  50288.6419     0.26829E+02 
  50328.9696     0.26167E+02 
  50369.2973     0.25352E+02 
  50409.6250     0.24410E+02 
  50449.9527     0.23364E+02 
  50490.2804     0.22237E+02 
  50530.6081     0.21046E+02 
  50570.9358     0.19806E+02 
  50611.2635     0.18530E+02 
  50651.5912     0.17227E+02 
  50691.9189     0.15904E+02 
  50732.2466     0.14568E+02 
  50772.5743     0.13228E+02 
  50812.9020     0.11892E+02 
  50853.2297     0.10571E+02 
  50893.5574     0.92769E+01 
  50933.8851     0.80242E+01 
  50974.2128     0.68286E+01 
  51014.5405     0.57067E+01 
  51054.8682     0.46754E+01 
  51095.1959     0.37509E+01 
  51135.5236     0.29486E+01 
  51175.8513     0.22822E+01 
  51216.1790     0.17630E+01 
  51256.5067     0.14001E+01 
  51296.8344     0.11995E+01 
  51337.1621     0.11642E+01 
  51377.4898     0.12935E+01 
  51417.8175     0.15833E+01 
  51458.1452     0.20256E+01 
  51498.4729     0.26086E+01 
  51538.8006     0.33169E+01 
  51579.1283     0.41320E+01 
  51619.4560     0.50322E+01 
  51659.7837     0.59941E+01 
  51700.1114     0.69928E+01 
  51740.4391     0.80028E+01 
  51780.7668     0.89994E+01 
  51821.0945     0.99593E+01 
  51861.4222     0.10861E+02 
  51901.7499     0.11687E+02 
  51942.0776     0.12423E+02 
  51982.4053     0.13057E+02 
  52022.7330     0.13584E+02 
  52063.0607     0.13999E+02 
  52103.3884     0.14302E+02 
  52143.7161     0.14495E+02 
  52184.0438     0.14584E+02 
  52224.3715     0.14573E+02 
  52264.6992     0.14468E+02 
  52305.0269     0.14277E+02 
  52345.3546     0.14005E+02 
  52385.6823     0.13659E+02 
  52426.0100     0.13244E+02 
  52466.3377     0.12767E+02 
  52506.6654     0.12234E+02 
  52546.9931     0.11651E+02 
  52587.3208     0.11025E+02 
  52627.6485     0.10364E+02 
  52667.9762     0.96765E+01 
  52708.3039     0.89709E+01 
  52748.6316     0.82570E+01 
  52788.9593     0.75447E+01 
  52829.2870     0.68437E+01 
  52869.6147     0.61638E+01 
  52909.9424     0.55141E+01 
  52950.2701     0.49028E+01 
  52990.5978     0.43374E+01 
  53030.9255     0.38240E+01 
  53071.2532     0.33679E+01 
  53111.5809     0.29726E+01 
  53151.9086     0.26406E+01 
  53192.2363     0.23729E+01 
  53232.5640     0.21691E+01 
  53272.8917     0.20276E+01 
  53313.2194     0.19455E+01 
  53353.5471     0.19188E+01 
  53393.8748     0.19426E+01 
  53434.2025     0.20110E+01 
  53474.5302     0.21175E+01 
  53514.8579     0.22552E+01 
  53555.1856     0.24170E+01 
  53595.5133     0.25959E+01 
  53635.8410     0.27850E+01 
  53676.1687     0.29777E+01 
  53716.4964     0.31683E+01 
  53756.8241     0.33516E+01 
  53797.1518     0.35232E+01 
  53837.4795     0.36795E+01 
  53877.8072     0.38177E+01 
  53918.1349     0.39357E+01 
  53958.4626     0.40321E+01 
  53998.7903     0.41061E+01 
  54039.1180     0.41571E+01 
  54079.4457     0.41852E+01 
  54119.7734     0.41906E+01 
  54160.1011     0.41740E+01 
  54200.4288     0.41359E+01 
  54240.7565     0.40775E+01 
  54281.0842     0.39998E+01 
  54321.4119     0.39043E+01 
  54361.7396     0.37926E+01 
  54402.0673     0.36664E+01 
  54442.3950     0.35278E+01 
  54482.7227     0.33789E+01 
  54523.0504     0.32221E+01 
  54563.3781     0.30598E+01 
  54603.7058     0.28943E+01 
  54644.0335     0.27280E+01 
  54684.3612     0.25633E+01 
  54724.6889     0.24022E+01 
  54765.0166     0.22468E+01 
  54805.3443     0.20987E+01 
  54845.6720     0.19594E+01 
  54885.9997     0.18302E+01 
  54926.3274     0.17120E+01 
  54966.6551     0.16053E+01 
  55006.9828     0.15107E+01 
  55047.3105     0.14282E+01 
  55087.6382     0.13576E+01 
  55127.9659     0.12986E+01 
  55168.2936     0.12506E+01 
  55208.6213     0.12128E+01 
  55248.9490     0.11843E+01 
  55289.2767     0.11641E+01 
  55329.6044     0.11511E+01 
  55369.9321     0.11441E+01 
  55410.2598     0.11420E+01 
  55450.5875     0.11436E+01 
  55490.9152     0.11480E+01 
  55531.2429     0.11540E+01 
  55571.5706     0.11608E+01 
  55611.8983     0.11675E+01 
  55652.2260     0.11735E+01 
  55692.5537     0.11782E+01 
  55732.8814     0.11812E+01 
  55773.2091     0.11819E+01 
  55813.5368     0.11801E+01 
  55853.8645     0.11757E+01 
  55894.1922     0.11684E+01 
  55934.5199     0.11581E+01 
  55974.8476     0.11450E+01 
  56015.1753     0.11289E+01 
  56055.5030     0.11100E+01 
  56095.8307     0.10884E+01 
  56136.1584     0.10644E+01 
  56176.4861     0.10381E+01 
  56216.8138     0.10098E+01 
  56257.1415     0.97990E+00 
  56297.4692     0.94864E+00 
  56337.7969     0.91639E+00 
  56378.1246     0.88349E+00 
  56418.4523     0.85029E+00 
  56458.7800     0.81713E+00 
  56499.1077     0.78433E+00 
  56539.4354     0.75218E+00 
  56579.7631     0.72096E+00 
  56620.0908     0.69087E+00 
  56660.4185     0.66213E+00 
  56700.7462     0.63489E+00 
  56741.0739     0.60925E+00 
  56781.4016     0.58531E+00 
  56821.7293     0.56310E+00 
  56862.0570     0.54262E+00 
  56902.3847     0.52386E+00 
  56942.7124     0.50676E+00 
  56983.0401     0.49123E+00 
  57023.3678     0.47719E+00 
  57063.6955     0.46451E+00 
  57104.0232     0.45306E+00 
  57144.3509     0.44271E+00 
  57184.6786     0.43331E+00 
  57225.0063     0.42474E+00 
  57265.3340     0.41685E+00 
  57305.6617     0.40950E+00 
  57345.9894     0.40259E+00 
  57386.3171     0.39600E+00 
  57426.6448     0.38963E+00 
  57466.9725     0.38339E+00 
  57507.3002     0.37721E+00 
  57547.6279     0.37102E+00 
  57587.9556     0.36477E+00 
  57628.2833     0.35841E+00 
  57668.6110     0.35192E+00 
  57708.9387     0.34528E+00 
  57749.2664     0.33846E+00 
  57789.5941     0.33146E+00 
  57829.9218     0.32429E+00 
  57870.2495     0.31696E+00 
  57910.5772     0.30948E+00 
  57950.9049     0.30187E+00 
  57991.2326     0.29416E+00 
  58031.5603     0.28638E+00 
  58071.8880     0.27857E+00 
  58112.2157     0.27076E+00 
  58152.5434     0.26298E+00 
  58192.8711     0.25527E+00 
  58233.1988     0.24768E+00 
  58273.5265     0.24022E+00 
  58313.8542     0.23292E+00 
  58354.1819     0.22583E+00 
  58394.5096     0.21894E+00 
  58434.8373     0.21230E+00 
  58475.1650     0.20590E+00 
  58515.4927     0.19976E+00 
  58555.8204     0.19388E+00 
  58596.1481     0.18827E+00 
  58636.4758     0.18293E+00 
  58676.8035     0.17784E+00 
  58717.1312     0.17301E+00 
  58757.4589     0.16842E+00 
  58797.7866     0.16406E+00 
  58838.1143     0.15992E+00 
  58878.4420     0.15598E+00 
  58918.7697     0.15222E+00 
  58959.0974     0.14864E+00 
  58999.4251     0.14520E+00 
  59039.7528     0.14191E+00 
  59080.0805     0.13874E+00 
  59120.4082     0.13567E+00 
  59160.7359     0.13271E+00 
  59201.0636     0.12982E+00 
  59241.3913     0.12701E+00 
  59281.7190     0.12427E+00 
  59322.0467     0.12158E+00 
  59362.3744     0.11894E+00 
  59402.7021     0.11635E+00 
  59443.0298     0.11379E+00 
  59483.3575     0.11127E+00 
  59523.6852     0.10878E+00 
  59564.0129     0.10632E+00 
  59604.3406     0.10389E+00 
  59644.6683     0.10150E+00 
  59684.9960     0.99133E-01 
  59725.3237     0.96800E-01 
  59765.6514     0.94501E-01 
  59805.9791     0.92238E-01 
  59846.3068     0.90014E-01 
  59886.6345     0.87831E-01 
  59926.9622     0.85691E-01 
  59967.2899     0.83596E-01 
  60007.6176     0.81549E-01 
  60047.9453     0.79551E-01 
  60088.2730     0.77605E-01 
  60128.6007     0.75711E-01 
  60168.9284     0.73870E-01 
  60209.2561     0.72083E-01 
  60249.5838     0.70351E-01 
  60289.9115     0.68672E-01 
  60330.2392     0.67047E-01 
  60370.5669     0.65474E-01 
  60410.8946     0.63953E-01 
  60451.2223     0.62481E-01 
  60491.5500     0.61058E-01 
  60531.8777     0.59681E-01 
  60572.2054     0.58349E-01 
  60612.5331     0.57059E-01 
  60652.8608     0.55810E-01 
  60693.1885     0.54599E-01 
  60733.5162     0.53424E-01 
  60773.8439     0.52284E-01 
  60814.1716     0.51175E-01 
  60854.4993     0.50097E-01 
  60894.8270     0.49047E-01 
  60935.1547     0.48024E-01 
  60975.4824     0.47027E-01 
  61015.8101     0.46053E-01 
  61056.1378     0.45102E-01 
  61096.4655     0.44173E-01 
  61136.7932     0.43264E-01 
  61177.1209     0.42375E-01 
  61217.4486     0.41505E-01 
  61257.7763     0.40653E-01 
  61298.1040     0.39819E-01 
  61338.4317     0.39002E-01 
  61378.7594     0.38202E-01 
  61419.0871     0.37418E-01 
  61459.4148     0.36651E-01 
  61499.7425     0.35901E-01 
  61540.0702     0.35166E-01 
  61580.3979     0.34447E-01 
  61620.7256     0.33744E-01 
  61661.0533     0.33056E-01 
  61701.3810     0.32384E-01 
  61741.7087     0.31727E-01 
  61782.0364     0.31086E-01 
  61822.3641     0.30460E-01 
  61862.6918     0.29849E-01 
  61903.0195     0.29253E-01 
  61943.3472     0.28671E-01 
  61983.6749     0.28104E-01 
  62024.0026     0.27550E-01 
  62064.3303     0.27011E-01 
  62104.6580     0.26484E-01 
  62144.9857     0.25971E-01 
  62185.3134     0.25471E-01 
  62225.6411     0.24983E-01 
  62265.9688     0.24507E-01 
  62306.2965     0.24042E-01 
  62346.6242     0.23589E-01 
  62386.9519     0.23146E-01 
  62427.2796     0.22714E-01 
  62467.6073     0.22292E-01 
  62507.9350     0.21880E-01 
  62548.2627     0.21477E-01 
  62588.5904     0.21083E-01 
  62628.9181     0.20698E-01 
  62669.2458     0.20321E-01 
  62709.5735     0.19952E-01 
  62749.9012     0.19592E-01 
  62790.2289     0.19239E-01 
  62830.5566     0.18893E-01 
  62870.8843     0.18555E-01 
  62911.2120     0.18223E-01 
  62951.5397     0.17899E-01 
  62991.8674     0.17580E-01 
  63032.1951     0.17269E-01 
  63072.5228     0.16964E-01 
  63112.8505     0.16664E-01 
  63153.1782     0.16371E-01 
  63193.5059     0.16084E-01 
  63233.8336     0.15802E-01 
  63274.1613     0.15526E-01 
  63314.4890     0.15256E-01 
  63354.8167     0.14991E-01 
  63395.1444     0.14732E-01 
  63435.4721     0.14477E-01 
  63475.7998     0.14228E-01 
  63516.1275     0.13984E-01 
  63556.4552     0.13744E-01 
  63596.7829     0.13510E-01 
  63637.1106     0.13280E-01 
  63677.4383     0.13055E-01 
  63717.7660     0.12834E-01 
  63758.0937     0.12618E-01 
  63798.4214     0.12406E-01 
  63838.7491     0.12198E-01 
  63879.0768     0.11994E-01 
  63919.4045     0.11794E-01 
  63959.7322     0.11599E-01 
  64000.0599     0.11407E-01 
  64040.3876     0.11218E-01 
  64080.7153     0.11034E-01 
  64121.0430     0.10853E-01 
  64161.3707     0.10675E-01 
  64201.6984     0.10501E-01 
  64242.0261     0.10329E-01 
  64282.3538     0.10162E-01 
  64322.6815     0.99968E-02 
  64363.0092     0.98350E-02 
  64403.3369     0.96762E-02 
  64443.6646     0.95203E-02 
  64483.9923     0.93672E-02 
  64524.3200     0.92168E-02 
  64564.6477     0.90691E-02 
  64604.9754     0.89240E-02 
  64645.3031     0.87815E-02 
  64685.6308     0.86415E-02 
  64725.9585     0.85039E-02 
  64766.2862     0.83687E-02 
  64806.6139     0.82359E-02 
  64846.9416     0.81054E-02 
  64887.2693     0.79771E-02 
  64927.5970     0.78510E-02 
  64967.9247     0.77271E-02 
  65008.2524     0.76052E-02 
  65048.5801     0.74855E-02 
  65088.9078     0.73678E-02 
  65129.2355     0.72520E-02 
  65169.5632     0.71383E-02 
  65209.8909     0.70264E-02 
  65250.2186     0.69164E-02 
  65290.5463     0.68082E-02 
  65330.8740     0.67018E-02 
  65371.2017     0.65972E-02 
  65411.5294     0.64943E-02 
  65451.8571     0.63931E-02 
  65492.1848     0.62936E-02 
  65532.5125     0.61957E-02 
  65572.8402     0.60993E-02 
  65613.1679     0.60046E-02 
  65653.4956     0.59113E-02 
  65693.8233     0.58196E-02 
  65734.1510     0.57293E-02 
  65774.4787     0.56404E-02 
  65814.8064     0.55530E-02 
  65855.1341     0.54669E-02 
  65895.4618     0.53822E-02 
  65935.7895     0.52988E-02 
  65976.1172     0.52167E-02 
  66016.4449     0.51359E-02 
  66056.7726     0.50563E-02 
  66097.1003     0.49779E-02 
  66137.4280     0.49008E-02 
  66177.7557     0.48248E-02 
  66218.0834     0.47500E-02 
  66258.4111     0.46763E-02 
  66298.7388     0.46037E-02 
  66339.0665     0.45322E-02 
  66379.3942     0.44617E-02 
  66419.7219     0.43924E-02 
  66460.0496     0.43240E-02 
  66500.3773     0.42566E-02 
  66540.7050     0.41903E-02 
  66581.0327     0.41249E-02 
  66621.3604     0.40605E-02 
  66661.6881     0.39970E-02 
  66702.0158     0.39345E-02 
  66742.3435     0.38728E-02 
  66782.6712     0.38120E-02 
  66822.9989     0.37522E-02 
  66863.3266     0.36931E-02 
  66903.6543     0.36350E-02 
  66943.9820     0.35776E-02 
  66984.3097     0.35211E-02 
  67024.6374     0.34653E-02 
  67064.9651     0.34104E-02 
  67105.2928     0.33562E-02 
  67145.6205     0.33028E-02 
  67185.9482     0.32502E-02 
  67226.2759     0.31983E-02 
  67266.6036     0.31471E-02 
  67306.9313     0.30966E-02 
  67347.2590     0.30468E-02 
  67387.5867     0.29977E-02 
  67427.9144     0.29493E-02 
  67468.2421     0.29016E-02 
  67508.5698     0.28545E-02 
  67548.8975     0.28081E-02 
  67589.2252     0.27622E-02 
  67629.5529     0.27171E-02 
  67669.8806     0.26725E-02 
  67710.2083     0.26285E-02 
  67750.5360     0.25851E-02 
  67790.8637     0.25424E-02 
  67831.1914     0.25002E-02 
  67871.5191     0.24585E-02 
  67911.8468     0.24174E-02 
  67952.1745     0.23769E-02 
  67992.5022     0.23369E-02 
  68032.8299     0.22974E-02 
  68073.1576     0.22585E-02 
  68113.4853     0.22201E-02 
  68153.8130     0.21822E-02 
  68194.1407     0.21448E-02 
  68234.4684     0.21079E-02 
  68274.7961     0.20715E-02 
  68315.1238     0.20355E-02 
  68355.4515     0.20000E-02 
  68395.7792     0.19650E-02 
  68436.1069     0.19305E-02 
  68476.4346     0.18964E-02 
  68516.7623     0.18628E-02 
  68557.0900     0.18296E-02 
  68597.4177     0.17968E-02 
  68637.7454     0.17645E-02 
  68678.0731     0.17326E-02 
  68718.4008     0.17011E-02 
  68758.7285     0.16700E-02 
  68799.0562     0.16393E-02 
  68839.3839     0.16091E-02 
  68879.7116     0.15792E-02 
  68920.0393     0.15497E-02 
  68960.3670     0.15206E-02 
  69000.6947     0.14919E-02 
  69041.0224     0.14635E-02 
  69081.3501     0.14356E-02 
  69121.6778     0.14079E-02 
  69162.0055     0.13807E-02 
  69202.3332     0.13538E-02 
  69242.6609     0.13273E-02 
  69282.9886     0.13011E-02 
  69323.3163     0.12752E-02 
  69363.6440     0.12497E-02 
  69403.9717     0.12246E-02 
  69444.2994     0.11997E-02 
  69484.6271     0.11752E-02 
  69524.9548     0.11510E-02 
  69565.2825     0.11272E-02 
  69605.6102     0.11036E-02 
  69645.9379     0.10804E-02 
  69686.2656     0.10575E-02 
  69726.5933     0.10349E-02 
  69766.9210     0.10126E-02 
  69807.2487     0.99055E-03 
  69847.5764     0.96884E-03 
  69887.9041     0.94743E-03 
  69928.2318     0.92630E-03 
  69968.5595     0.90547E-03 
  70008.8872     0.88492E-03 
  70049.2149     0.86465E-03 
  70089.5426     0.84466E-03 
  70129.8703     0.82495E-03 
  70170.1980     0.80552E-03 
  70210.5257     0.78635E-03 
  70250.8534     0.76746E-03 
  70291.1811     0.74883E-03 
  70331.5088     0.73047E-03 
  70371.8365     0.71238E-03 
  70412.1642     0.69454E-03 
  70452.4919     0.67696E-03 
  70492.8196     0.65964E-03 
  70533.1473     0.64257E-03 
  70573.4750     0.62576E-03 
  70613.8027     0.60919E-03 
  70654.1304     0.59288E-03 
  70694.4581     0.57681E-03 
  70734.7858     0.56098E-03 
  70775.1135     0.54540E-03 
  70815.4412     0.53006E-03 
  70855.7689     0.51496E-03 
  70896.0966     0.50010E-03 
  70936.4243     0.48547E-03 
  70976.7520     0.47108E-03 
  71017.0797     0.45693E-03 
  71057.4074     0.44300E-03 
  71097.7351     0.42931E-03 
  71138.0628     0.41585E-03 
  71178.3905     0.40261E-03 
  71218.7182     0.38961E-03 
  71259.0459     0.37683E-03 
  71299.3736     0.36427E-03 
  71339.7013     0.35194E-03 
  71380.0290     0.33984E-03 
  71420.3567     0.32795E-03 
  71460.6844     0.31629E-03 
  71501.0121     0.30485E-03 
  71541.3398     0.29362E-03 
  71581.6675     0.28262E-03 
  71621.9952     0.27183E-03 
  71662.3229     0.26126E-03 
  71702.6506     0.25091E-03 
  71742.9783     0.24078E-03 
  71783.3060     0.23086E-03 
  71823.6337     0.22116E-03 
  71863.9614     0.21167E-03 
  71904.2891     0.20240E-03 
  71944.6168     0.19334E-03 
  71984.9445     0.18449E-03 
  72025.2722     0.17586E-03 
  72065.5999     0.16744E-03 
  72105.9276     0.15923E-03 
  72146.2553     0.15124E-03 
  72186.5830     0.14346E-03 
  72226.9107     0.13589E-03 
  72267.2384     0.12854E-03 
  72307.5661     0.12140E-03 
  72347.8938     0.11447E-03 
  72388.2215     0.10775E-03 
  72428.5492     0.10125E-03 
  72468.8769     0.94961E-04 
  72509.2046     0.88885E-04 
  72549.5323     0.83023E-04 
  72589.8600     0.77375E-04 
