  32262.1600     0.94640E-01 
  32302.4877     0.98442E-01 
  32342.8154     0.10235E+00 
  32383.1431     0.10636E+00 
  32423.4708     0.11048E+00 
  32463.7985     0.11471E+00 
  32504.1262     0.11905E+00 
  32544.4539     0.12351E+00 
  32584.7816     0.12808E+00 
  32625.1093     0.13277E+00 
  32665.4370     0.13758E+00 
  32705.7647     0.14252E+00 
  32746.0924     0.14758E+00 
  32786.4201     0.15277E+00 
  32826.7478     0.15809E+00 
  32867.0755     0.16354E+00 
  32907.4032     0.16913E+00 
  32947.7309     0.17486E+00 
  32988.0586     0.18073E+00 
  33028.3863     0.18674E+00 
  33068.7140     0.19290E+00 
  33109.0417     0.19921E+00 
  33149.3694     0.20567E+00 
  33189.6971     0.21229E+00 
  33230.0248     0.21907E+00 
  33270.3525     0.22600E+00 
  33310.6802     0.23310E+00 
  33351.0079     0.24037E+00 
  33391.3356     0.24781E+00 
  33431.6633     0.25543E+00 
  33471.9910     0.26322E+00 
  33512.3187     0.27120E+00 
  33552.6464     0.27936E+00 
  33592.9741     0.28771E+00 
  33633.3018     0.29625E+00 
  33673.6295     0.30499E+00 
  33713.9572     0.31393E+00 
  33754.2849     0.32307E+00 
  33794.6126     0.33242E+00 
  33834.9403     0.34198E+00 
  33875.2680     0.35177E+00 
  33915.5957     0.36177E+00 
  33955.9234     0.37200E+00 
  33996.2511     0.38245E+00 
  34036.5788     0.39315E+00 
  34076.9065     0.40408E+00 
  34117.2342     0.41526E+00 
  34157.5619     0.42668E+00 
  34197.8896     0.43836E+00 
  34238.2173     0.45030E+00 
  34278.5450     0.46251E+00 
  34318.8727     0.47499E+00 
  34359.2004     0.48774E+00 
  34399.5281     0.50077E+00 
  34439.8558     0.51409E+00 
  34480.1835     0.52771E+00 
  34520.5112     0.54162E+00 
  34560.8389     0.55584E+00 
  34601.1666     0.57037E+00 
  34641.4943     0.58522E+00 
  34681.8220     0.60039E+00 
  34722.1497     0.61589E+00 
  34762.4774     0.63174E+00 
  34802.8051     0.64793E+00 
  34843.1328     0.66447E+00 
  34883.4605     0.68137E+00 
  34923.7882     0.69864E+00 
  34964.1159     0.71628E+00 
  35004.4436     0.73431E+00 
  35044.7713     0.75273E+00 
  35085.0990     0.77154E+00 
  35125.4267     0.79077E+00 
  35165.7544     0.81041E+00 
  35206.0821     0.83048E+00 
  35246.4098     0.85098E+00 
  35286.7375     0.87193E+00 
  35327.0652     0.89332E+00 
  35367.3929     0.91519E+00 
  35407.7206     0.93752E+00 
  35448.0483     0.96034E+00 
  35488.3760     0.98365E+00 
  35528.7037     0.10075E+01 
  35569.0314     0.10318E+01 
  35609.3591     0.10566E+01 
  35649.6868     0.10820E+01 
  35690.0145     0.11080E+01 
  35730.3422     0.11345E+01 
  35770.6699     0.11615E+01 
  35810.9976     0.11892E+01 
  35851.3253     0.12175E+01 
  35891.6530     0.12463E+01 
  35931.9807     0.12758E+01 
  35972.3084     0.13060E+01 
  36012.6361     0.13368E+01 
  36052.9638     0.13682E+01 
  36093.2915     0.14003E+01 
  36133.6192     0.14332E+01 
  36173.9469     0.14667E+01 
  36214.2746     0.15010E+01 
  36254.6023     0.15360E+01 
  36294.9300     0.15718E+01 
  36335.2577     0.16084E+01 
  36375.5854     0.16457E+01 
  36415.9131     0.16839E+01 
  36456.2408     0.17229E+01 
  36496.5685     0.17627E+01 
  36536.8962     0.18035E+01 
  36577.2239     0.18451E+01 
  36617.5516     0.18876E+01 
  36657.8793     0.19311E+01 
  36698.2070     0.19755E+01 
  36738.5347     0.20209E+01 
  36778.8624     0.20673E+01 
  36819.1901     0.21147E+01 
  36859.5178     0.21631E+01 
  36899.8455     0.22127E+01 
  36940.1732     0.22633E+01 
  36980.5009     0.23150E+01 
  37020.8286     0.23679E+01 
  37061.1563     0.24220E+01 
  37101.4840     0.24772E+01 
  37141.8117     0.25337E+01 
  37182.1394     0.25915E+01 
  37222.4671     0.26505E+01 
  37262.7948     0.27109E+01 
  37303.1225     0.27726E+01 
  37343.4502     0.28356E+01 
  37383.7779     0.29001E+01 
  37424.1056     0.29661E+01 
  37464.4333     0.30335E+01 
  37504.7610     0.31025E+01 
  37545.0887     0.31730E+01 
  37585.4164     0.32451E+01 
  37625.7441     0.33188E+01 
  37666.0718     0.33943E+01 
  37706.3995     0.34714E+01 
  37746.7272     0.35503E+01 
  37787.0549     0.36310E+01 
  37827.3826     0.37135E+01 
  37867.7103     0.37980E+01 
  37908.0380     0.38843E+01 
  37948.3657     0.39727E+01 
  37988.6934     0.40631E+01 
  38029.0211     0.41556E+01 
  38069.3488     0.42502E+01 
  38109.6765     0.43470E+01 
  38150.0042     0.44461E+01 
  38190.3319     0.45475E+01 
  38230.6596     0.46512E+01 
  38270.9873     0.47574E+01 
  38311.3150     0.48661E+01 
  38351.6427     0.49773E+01 
  38391.9704     0.50911E+01 
  38432.2981     0.52077E+01 
  38472.6258     0.53270E+01 
  38512.9535     0.54491E+01 
  38553.2812     0.55741E+01 
  38593.6089     0.57022E+01 
  38633.9366     0.58332E+01 
  38674.2643     0.59675E+01 
  38714.5920     0.61049E+01 
  38754.9197     0.62457E+01 
  38795.2474     0.63898E+01 
  38835.5751     0.65375E+01 
  38875.9028     0.66887E+01 
  38916.2305     0.68437E+01 
  38956.5582     0.70024E+01 
  38996.8859     0.71650E+01 
  39037.2136     0.73315E+01 
  39077.5413     0.75022E+01 
  39117.8690     0.76772E+01 
  39158.1967     0.78564E+01 
  39198.5244     0.80401E+01 
  39238.8521     0.82284E+01 
  39279.1798     0.84214E+01 
  39319.5075     0.86192E+01 
  39359.8352     0.88220E+01 
  39400.1629     0.90299E+01 
  39440.4906     0.92431E+01 
  39480.8183     0.94617E+01 
  39521.1460     0.96858E+01 
  39561.4737     0.99157E+01 
  39601.8014     0.10152E+02 
  39642.1291     0.10393E+02 
  39682.4568     0.10641E+02 
  39722.7845     0.10896E+02 
  39763.1122     0.11157E+02 
  39803.4399     0.11425E+02 
  39843.7676     0.11700E+02 
  39884.0953     0.11982E+02 
  39924.4230     0.12272E+02 
  39964.7507     0.12569E+02 
  40005.0784     0.12874E+02 
  40045.4061     0.13187E+02 
  40085.7338     0.13509E+02 
  40126.0615     0.13839E+02 
  40166.3892     0.14179E+02 
  40206.7169     0.14527E+02 
  40247.0446     0.14885E+02 
  40287.3723     0.15252E+02 
  40327.7000     0.15630E+02 
  40368.0277     0.16018E+02 
  40408.3554     0.16417E+02 
  40448.6831     0.16826E+02 
  40489.0108     0.17248E+02 
  40529.3385     0.17680E+02 
  40569.6662     0.18126E+02 
  40609.9939     0.18583E+02 
  40650.3216     0.19054E+02 
  40690.6493     0.19537E+02 
  40730.9770     0.20035E+02 
  40771.3047     0.20547E+02 
  40811.6324     0.21074E+02 
  40851.9601     0.21616E+02 
  40892.2878     0.22173E+02 
  40932.6155     0.22747E+02 
  40972.9432     0.23338E+02 
  41013.2709     0.23946E+02 
  41053.5986     0.24572E+02 
  41093.9263     0.25217E+02 
  41134.2540     0.25881E+02 
  41174.5817     0.26565E+02 
  41214.9094     0.27269E+02 
  41255.2371     0.27995E+02 
  41295.5648     0.28743E+02 
  41335.8925     0.29514E+02 
  41376.2202     0.30309E+02 
  41416.5479     0.31128E+02 
  41456.8756     0.31973E+02 
  41497.2033     0.32844E+02 
  41537.5310     0.33743E+02 
  41577.8587     0.34670E+02 
  41618.1864     0.35627E+02 
  41658.5141     0.36614E+02 
  41698.8418     0.37632E+02 
  41739.1695     0.38684E+02 
  41779.4972     0.39770E+02 
  41819.8249     0.40892E+02 
  41860.1526     0.42050E+02 
  41900.4803     0.43247E+02 
  41940.8080     0.44483E+02 
  41981.1357     0.45761E+02 
  42021.4634     0.47082E+02 
  42061.7911     0.48448E+02 
  42102.1188     0.49860E+02 
  42142.4465     0.51321E+02 
  42182.7742     0.52833E+02 
  42223.1019     0.54397E+02 
  42263.4296     0.56016E+02 
  42303.7573     0.57692E+02 
  42344.0850     0.59427E+02 
  42384.4127     0.61225E+02 
  42424.7404     0.63087E+02 
  42465.0681     0.65017E+02 
  42505.3958     0.67017E+02 
  42545.7235     0.69091E+02 
  42586.0512     0.71241E+02 
  42626.3789     0.73472E+02 
  42666.7066     0.75787E+02 
  42707.0343     0.78189E+02 
  42747.3620     0.80683E+02 
  42787.6897     0.83273E+02 
  42828.0174     0.85964E+02 
  42868.3451     0.88760E+02 
  42908.6728     0.91666E+02 
  42949.0005     0.94687E+02 
  42989.3282     0.97830E+02 
  43029.6559     0.10110E+03 
  43069.9836     0.10450E+03 
  43110.3113     0.10805E+03 
  43150.6390     0.11174E+03 
  43190.9667     0.11558E+03 
  43231.2944     0.11959E+03 
  43271.6221     0.12376E+03 
  43311.9498     0.12812E+03 
  43352.2775     0.13267E+03 
  43392.6052     0.13742E+03 
  43432.9329     0.14237E+03 
  43473.2606     0.14755E+03 
  43513.5883     0.15296E+03 
  43553.9160     0.15863E+03 
  43594.2437     0.16455E+03 
  43634.5714     0.17075E+03 
  43674.8991     0.17724E+03 
  43715.2268     0.18404E+03 
  43755.5545     0.19117E+03 
  43795.8822     0.19865E+03 
  43836.2099     0.20650E+03 
  43876.5376     0.21474E+03 
  43916.8653     0.22339E+03 
  43957.1930     0.23249E+03 
  43997.5207     0.24207E+03 
  44037.8484     0.25214E+03 
  44078.1761     0.26276E+03 
  44118.5038     0.27395E+03 
  44158.8315     0.28575E+03 
  44199.1592     0.29820E+03 
  44239.4869     0.31136E+03 
  44279.8146     0.32527E+03 
  44320.1423     0.33999E+03 
  44360.4700     0.35557E+03 
  44400.7977     0.37209E+03 
  44441.1254     0.38961E+03 
  44481.4531     0.40821E+03 
  44521.7808     0.42798E+03 
  44562.1085     0.44902E+03 
  44602.4362     0.47142E+03 
  44642.7639     0.49531E+03 
  44683.0916     0.52082E+03 
  44723.4193     0.54807E+03 
  44763.7470     0.57724E+03 
  44804.0747     0.60849E+03 
  44844.4024     0.64203E+03 
  44884.7301     0.67806E+03 
  44925.0578     0.71683E+03 
  44965.3855     0.75863E+03 
  45005.7132     0.80375E+03 
  45046.0409     0.85254E+03 
  45086.3686     0.90541E+03 
  45126.6963     0.96279E+03 
  45167.0240     0.10252E+04 
  45207.3517     0.10932E+04 
  45247.6794     0.11675E+04 
  45288.0071     0.12489E+04 
  45328.3348     0.13381E+04 
  45368.6625     0.14363E+04 
  45408.9902     0.15446E+04 
  45449.3179     0.16644E+04 
  45489.6456     0.17972E+04 
  45529.9733     0.19449E+04 
  45570.3010     0.21097E+04 
  45610.6287     0.22940E+04 
  45650.9564     0.25007E+04 
  45691.2841     0.27332E+04 
  45731.6118     0.29953E+04 
  45771.9395     0.32912E+04 
  45812.2672     0.36257E+04 
  45852.5949     0.40037E+04 
  45892.9226     0.44300E+04 
  45933.2503     0.49087E+04 
  45973.5780     0.54415E+04 
  46013.9057     0.60263E+04 
  46054.2334     0.66542E+04 
  46094.5611     0.73061E+04 
  46134.8888     0.79492E+04 
  46175.2165     0.85357E+04 
  46215.5442     0.90062E+04 
  46255.8719     0.92988E+04 
  46296.1996     0.93639E+04 
  46336.5273     0.91790E+04 
  46376.8550     0.87540E+04 
  46417.1827     0.81268E+04 
  46457.5104     0.73505E+04 
  46497.8381     0.64803E+04 
  46538.1658     0.55656E+04 
  46578.4935     0.46481E+04 
  46618.8212     0.37648E+04 
  46659.1489     0.29526E+04 
  46699.4766     0.22532E+04 
  46739.8043     0.17129E+04 
  46780.1320     0.13757E+04 
  46820.4597     0.12718E+04 
  46860.7874     0.14053E+04 
  46901.1151     0.17497E+04 
  46941.4428     0.22509E+04 
  46981.7705     0.28364E+04 
  47022.0982     0.34274E+04 
  47062.4259     0.39533E+04 
  47102.7536     0.43665E+04 
  47143.0813     0.46526E+04 
  47183.4090     0.48302E+04 
  47223.7367     0.49406E+04 
  47264.0644     0.50326E+04 
  47304.3921     0.51492E+04 
  47344.7198     0.53238E+04 
  47385.0475     0.55826E+04 
  47425.3752     0.59521E+04 
  47465.7029     0.64656E+04 
  47506.0306     0.71674E+04 
  47546.3583     0.81111E+04 
  47586.6860     0.93496E+04 
  47627.0137     0.10917E+05 
  47667.3414     0.12808E+05 
  47707.6691     0.14959E+05 
  47747.9968     0.17242E+05 
  47788.3245     0.19477E+05 
  47828.6522     0.21459E+05 
  47868.9799     0.23002E+05 
  47909.3076     0.23974E+05 
  47949.6353     0.24319E+05 
  47989.9630     0.24058E+05 
  48030.2907     0.23257E+05 
  48070.6184     0.22006E+05 
  48110.9461     0.20391E+05 
  48151.2738     0.18486E+05 
  48191.6015     0.16362E+05 
  48231.9292     0.14097E+05 
  48272.2569     0.11789E+05 
  48312.5846     0.95669E+04 
  48352.9123     0.75707E+04 
  48393.2400     0.59339E+04 
  48433.5677     0.47554E+04 
  48473.8954     0.40811E+04 
  48514.2231     0.38950E+04 
  48554.5508     0.41210E+04 
  48594.8785     0.46345E+04 
  48635.2062     0.52863E+04 
  48675.5339     0.59344E+04 
  48715.8616     0.64733E+04 
  48756.1893     0.68484E+04 
  48796.5170     0.70514E+04 
  48836.8447     0.71035E+04 
  48877.1724     0.70370E+04 
  48917.5001     0.68841E+04 
  48957.8278     0.66755E+04 
  48998.1555     0.64447E+04 
  49038.4832     0.62366E+04 
  49078.8109     0.61142E+04 
  49119.1386     0.61605E+04 
  49159.4663     0.64712E+04 
  49199.7940     0.71363E+04 
  49240.1217     0.82160E+04 
  49280.4494     0.97182E+04 
  49320.7771     0.11585E+05 
  49361.1048     0.13694E+05 
  49401.4325     0.15878E+05 
  49441.7602     0.17957E+05 
  49482.0879     0.19771E+05 
  49522.4156     0.21209E+05 
  49562.7433     0.22209E+05 
  49603.0710     0.22757E+05 
  49643.3987     0.22857E+05 
  49683.7264     0.22527E+05 
  49724.0541     0.21786E+05 
  49764.3818     0.20661E+05 
  49804.7095     0.19200E+05 
  49845.0372     0.17476E+05 
  49885.3649     0.15593E+05 
  49925.6926     0.13677E+05 
  49966.0203     0.11861E+05 
  50006.3480     0.10270E+05 
  50046.6757     0.89984E+04 
  50087.0034     0.81019E+04 
  50127.3311     0.75838E+04 
  50167.6588     0.73971E+04 
  50207.9865     0.74567E+04 
  50248.3142     0.76624E+04 
  50288.6419     0.79218E+04 
  50328.9696     0.81657E+04 
  50369.2973     0.83506E+04 
  50409.6250     0.84529E+04 
  50449.9527     0.84607E+04 
  50490.2804     0.83683E+04 
  50530.6081     0.81748E+04 
  50570.9358     0.78857E+04 
  50611.2635     0.75169E+04 
  50651.5912     0.70995E+04 
  50691.9189     0.66816E+04 
  50732.2466     0.63260E+04 
  50772.5743     0.61022E+04 
  50812.9020     0.60734E+04 
  50853.2297     0.62830E+04 
  50893.5574     0.67438E+04 
  50933.8851     0.74329E+04 
  50974.2128     0.82959E+04 
  51014.5405     0.92591E+04 
  51054.8682     0.10245E+05 
  51095.1959     0.11184E+05 
  51135.5236     0.12025E+05 
  51175.8513     0.12726E+05 
  51216.1790     0.13258E+05 
  51256.5067     0.13597E+05 
  51296.8344     0.13726E+05 
  51337.1621     0.13636E+05 
  51377.4898     0.13330E+05 
  51417.8175     0.12829E+05 
  51458.1452     0.12168E+05 
  51498.4729     0.11397E+05 
  51538.8006     0.10573E+05 
  51579.1283     0.97612E+04 
  51619.4560     0.90182E+04 
  51659.7837     0.83897E+04 
  51700.1114     0.79011E+04 
  51740.4391     0.75547E+04 
  51780.7668     0.73340E+04 
  51821.0945     0.72110E+04 
  51861.4222     0.71550E+04 
  51901.7499     0.71382E+04 
  51942.0776     0.71375E+04 
  51982.4053     0.71339E+04 
  52022.7330     0.71115E+04 
  52063.0607     0.70571E+04 
  52103.3884     0.69601E+04 
  52143.7161     0.68140E+04 
  52184.0438     0.66173E+04 
  52224.3715     0.63756E+04 
  52264.6992     0.61024E+04 
  52305.0269     0.58187E+04 
  52345.3546     0.55512E+04 
  52385.6823     0.53276E+04 
  52426.0100     0.51721E+04 
  52466.3377     0.51008E+04 
  52506.6654     0.51183E+04 
  52546.9931     0.52181E+04 
  52587.3208     0.53852E+04 
  52627.6485     0.56002E+04 
  52667.9762     0.58432E+04 
  52708.3039     0.60950E+04 
  52748.6316     0.63381E+04 
  52788.9593     0.65559E+04 
  52829.2870     0.67332E+04 
  52869.6147     0.68569E+04 
  52909.9424     0.69174E+04 
  52950.2701     0.69094E+04 
  52990.5978     0.68323E+04 
  53030.9255     0.66912E+04 
  53071.2532     0.64961E+04 
  53111.5809     0.62619E+04 
  53151.9086     0.60065E+04 
  53192.2363     0.57486E+04 
  53232.5640     0.55046E+04 
  53272.8917     0.52862E+04 
  53313.2194     0.50995E+04 
  53353.5471     0.49455E+04 
  53393.8748     0.48215E+04 
  53434.2025     0.47229E+04 
  53474.5302     0.46446E+04 
  53514.8579     0.45807E+04 
  53555.1856     0.45254E+04 
  53595.5133     0.44727E+04 
  53635.8410     0.44170E+04 
  53676.1687     0.43534E+04 
  53716.4964     0.42780E+04 
  53756.8241     0.41884E+04 
  53797.1518     0.40843E+04 
  53837.4795     0.39676E+04 
  53877.8072     0.38424E+04 
  53918.1349     0.37150E+04 
  53958.4626     0.35928E+04 
  53998.7903     0.34826E+04 
  54039.1180     0.33900E+04 
  54079.4457     0.33183E+04 
  54119.7734     0.32681E+04 
  54160.1011     0.32382E+04 
  54200.4288     0.32260E+04 
  54240.7565     0.32280E+04 
  54281.0842     0.32405E+04 
  54321.4119     0.32591E+04 
  54361.7396     0.32793E+04 
  54402.0673     0.32964E+04 
  54442.3950     0.33064E+04 
  54482.7227     0.33058E+04 
  54523.0504     0.32920E+04 
  54563.3781     0.32636E+04 
  54603.7058     0.32203E+04 
  54644.0335     0.31631E+04 
  54684.3612     0.30944E+04 
  54724.6889     0.30177E+04 
  54765.0166     0.29369E+04 
  54805.3443     0.28555E+04 
  54845.6720     0.27765E+04 
  54885.9997     0.27019E+04 
  54926.3274     0.26328E+04 
  54966.6551     0.25698E+04 
  55006.9828     0.25128E+04 
  55047.3105     0.24612E+04 
  55087.6382     0.24143E+04 
  55127.9659     0.23709E+04 
  55168.2936     0.23297E+04 
  55208.6213     0.22895E+04 
  55248.9490     0.22491E+04 
  55289.2767     0.22073E+04 
  55329.6044     0.21634E+04 
  55369.9321     0.21169E+04 
  55410.2598     0.20680E+04 
  55450.5875     0.20172E+04 
  55490.9152     0.19656E+04 
  55531.2429     0.19145E+04 
  55571.5706     0.18652E+04 
  55611.8983     0.18190E+04 
  55652.2260     0.17765E+04 
  55692.5537     0.17382E+04 
  55732.8814     0.17043E+04 
  55773.2091     0.16746E+04 
  55813.5368     0.16487E+04 
  55853.8645     0.16261E+04 
  55894.1922     0.16060E+04 
  55934.5199     0.15876E+04 
  55974.8476     0.15700E+04 
  56015.1753     0.15523E+04 
  56055.5030     0.15338E+04 
  56095.8307     0.15139E+04 
  56136.1584     0.14919E+04 
  56176.4861     0.14678E+04 
  56216.8138     0.14416E+04 
  56257.1415     0.14134E+04 
  56297.4692     0.13839E+04 
  56337.7969     0.13535E+04 
  56378.1246     0.13229E+04 
  56418.4523     0.12925E+04 
  56458.7800     0.12627E+04 
  56499.1077     0.12339E+04 
  56539.4354     0.12062E+04 
  56579.7631     0.11798E+04 
  56620.0908     0.11546E+04 
  56660.4185     0.11306E+04 
  56700.7462     0.11076E+04 
  56741.0739     0.10853E+04 
  56781.4016     0.10637E+04 
  56821.7293     0.10424E+04 
  56862.0570     0.10213E+04 
  56902.3847     0.10002E+04 
  56942.7124     0.97900E+03 
  56983.0401     0.95768E+03 
  57023.3678     0.93630E+03 
  57063.6955     0.91502E+03 
  57104.0232     0.89400E+03 
  57144.3509     0.87344E+03 
  57184.6786     0.85351E+03 
  57225.0063     0.83433E+03 
  57265.3340     0.81601E+03 
  57305.6617     0.79859E+03 
  57345.9894     0.78209E+03 
  57386.3171     0.76647E+03 
  57426.6448     0.75166E+03 
  57466.9725     0.73756E+03 
  57507.3002     0.72404E+03 
  57547.6279     0.71096E+03 
  57587.9556     0.69818E+03 
  57628.2833     0.68557E+03 
  57668.6110     0.67301E+03 
  57708.9387     0.66042E+03 
  57749.2664     0.64773E+03 
  57789.5941     0.63494E+03 
  57829.9218     0.62207E+03 
  57870.2495     0.60917E+03 
  57910.5772     0.59630E+03 
  57950.9049     0.58354E+03 
  57991.2326     0.57094E+03 
  58031.5603     0.55858E+03 
  58071.8880     0.54648E+03 
  58112.2157     0.53470E+03 
  58152.5434     0.52325E+03 
  58192.8711     0.51213E+03 
  58233.1988     0.50133E+03 
  58273.5265     0.49084E+03 
  58313.8542     0.48062E+03 
  58354.1819     0.47065E+03 
  58394.5096     0.46089E+03 
  58434.8373     0.45131E+03 
  58475.1650     0.44188E+03 
  58515.4927     0.43258E+03 
  58555.8204     0.42341E+03 
  58596.1481     0.41438E+03 
  58636.4758     0.40549E+03 
  58676.8035     0.39676E+03 
  58717.1312     0.38822E+03 
  58757.4589     0.37988E+03 
  58797.7866     0.37176E+03 
  58838.1143     0.36388E+03 
  58878.4420     0.35623E+03 
  58918.7697     0.34882E+03 
  58959.0974     0.34165E+03 
  58999.4251     0.33470E+03 
  59039.7528     0.32795E+03 
  59080.0805     0.32140E+03 
  59120.4082     0.31501E+03 
  59160.7359     0.30878E+03 
  59201.0636     0.30267E+03 
  59241.3913     0.29667E+03 
  59281.7190     0.29077E+03 
  59322.0467     0.28495E+03 
  59362.3744     0.27921E+03 
  59402.7021     0.27356E+03 
  59443.0298     0.26799E+03 
  59483.3575     0.26251E+03 
  59523.6852     0.25712E+03 
  59564.0129     0.25184E+03 
  59604.3406     0.24666E+03 
  59644.6683     0.24160E+03 
  59684.9960     0.23665E+03 
  59725.3237     0.23181E+03 
  59765.6514     0.22710E+03 
  59805.9791     0.22249E+03 
  59846.3068     0.21799E+03 
  59886.6345     0.21360E+03 
  59926.9622     0.20931E+03 
  59967.2899     0.20511E+03 
  60007.6176     0.20099E+03 
  60047.9453     0.19696E+03 
  60088.2730     0.19301E+03 
  60128.6007     0.18914E+03 
  60168.9284     0.18534E+03 
  60209.2561     0.18163E+03 
  60249.5838     0.17798E+03 
  60289.9115     0.17442E+03 
  60330.2392     0.17094E+03 
  60370.5669     0.16754E+03 
  60410.8946     0.16421E+03 
  60451.2223     0.16097E+03 
  60491.5500     0.15781E+03 
  60531.8777     0.15472E+03 
  60572.2054     0.15171E+03 
  60612.5331     0.14877E+03 
  60652.8608     0.14590E+03 
  60693.1885     0.14309E+03 
  60733.5162     0.14035E+03 
  60773.8439     0.13766E+03 
  60814.1716     0.13503E+03 
  60854.4993     0.13245E+03 
  60894.8270     0.12992E+03 
  60935.1547     0.12744E+03 
  60975.4824     0.12501E+03 
  61015.8101     0.12262E+03 
  61056.1378     0.12028E+03 
  61096.4655     0.11799E+03 
  61136.7932     0.11575E+03 
  61177.1209     0.11355E+03 
  61217.4486     0.11140E+03 
  61257.7763     0.10929E+03 
  61298.1040     0.10723E+03 
  61338.4317     0.10522E+03 
  61378.7594     0.10324E+03 
  61419.0871     0.10131E+03 
  61459.4148     0.99425E+02 
  61499.7425     0.97576E+02 
  61540.0702     0.95765E+02 
  61580.3979     0.93991E+02 
  61620.7256     0.92254E+02 
  61661.0533     0.90551E+02 
  61701.3810     0.88883E+02 
  61741.7087     0.87249E+02 
  61782.0364     0.85648E+02 
  61822.3641     0.84080E+02 
  61862.6918     0.82544E+02 
  61903.0195     0.81040E+02 
  61943.3472     0.79567E+02 
  61983.6749     0.78125E+02 
  62024.0026     0.76713E+02 
  62064.3303     0.75331E+02 
  62104.6580     0.73978E+02 
  62144.9857     0.72653E+02 
  62185.3134     0.71356E+02 
  62225.6411     0.70085E+02 
  62265.9688     0.68840E+02 
  62306.2965     0.67620E+02 
  62346.6242     0.66424E+02 
  62386.9519     0.65251E+02 
  62427.2796     0.64101E+02 
  62467.6073     0.62974E+02 
  62507.9350     0.61868E+02 
  62548.2627     0.60783E+02 
  62588.5904     0.59720E+02 
  62628.9181     0.58676E+02 
  62669.2458     0.57653E+02 
  62709.5735     0.56650E+02 
  62749.9012     0.55665E+02 
  62790.2289     0.54700E+02 
  62830.5566     0.53754E+02 
  62870.8843     0.52826E+02 
  62911.2120     0.51915E+02 
  62951.5397     0.51023E+02 
  62991.8674     0.50147E+02 
  63032.1951     0.49288E+02 
  63072.5228     0.48445E+02 
  63112.8505     0.47619E+02 
  63153.1782     0.46807E+02 
  63193.5059     0.46011E+02 
  63233.8336     0.45230E+02 
  63274.1613     0.44463E+02 
  63314.4890     0.43710E+02 
  63354.8167     0.42971E+02 
  63395.1444     0.42246E+02 
  63435.4721     0.41534E+02 
  63475.7998     0.40835E+02 
  63516.1275     0.40149E+02 
  63556.4552     0.39476E+02 
  63596.7829     0.38815E+02 
  63637.1106     0.38166E+02 
  63677.4383     0.37529E+02 
  63717.7660     0.36903E+02 
  63758.0937     0.36289E+02 
  63798.4214     0.35685E+02 
  63838.7491     0.35092E+02 
  63879.0768     0.34510E+02 
  63919.4045     0.33938E+02 
  63959.7322     0.33376E+02 
  64000.0599     0.32824E+02 
  64040.3876     0.32281E+02 
  64080.7153     0.31748E+02 
  64121.0430     0.31224E+02 
  64161.3707     0.30709E+02 
  64201.6984     0.30203E+02 
  64242.0261     0.29705E+02 
  64282.3538     0.29216E+02 
  64322.6815     0.28735E+02 
  64363.0092     0.28263E+02 
  64403.3369     0.27798E+02 
  64443.6646     0.27341E+02 
  64483.9923     0.26892E+02 
  64524.3200     0.26451E+02 
  64564.6477     0.26016E+02 
  64604.9754     0.25589E+02 
  64645.3031     0.25169E+02 
  64685.6308     0.24756E+02 
  64725.9585     0.24350E+02 
  64766.2862     0.23950E+02 
  64806.6139     0.23557E+02 
  64846.9416     0.23170E+02 
  64887.2693     0.22789E+02 
  64927.5970     0.22415E+02 
  64967.9247     0.22046E+02 
  65008.2524     0.21684E+02 
  65048.5801     0.21327E+02 
  65088.9078     0.20976E+02 
  65129.2355     0.20631E+02 
  65169.5632     0.20290E+02 
  65209.8909     0.19956E+02 
  65250.2186     0.19626E+02 
  65290.5463     0.19302E+02 
  65330.8740     0.18983E+02 
  65371.2017     0.18668E+02 
  65411.5294     0.18359E+02 
  65451.8571     0.18054E+02 
  65492.1848     0.17754E+02 
  65532.5125     0.17459E+02 
  65572.8402     0.17168E+02 
  65613.1679     0.16881E+02 
  65653.4956     0.16599E+02 
  65693.8233     0.16321E+02 
  65734.1510     0.16048E+02 
  65774.4787     0.15778E+02 
  65814.8064     0.15512E+02 
  65855.1341     0.15251E+02 
  65895.4618     0.14993E+02 
  65935.7895     0.14739E+02 
  65976.1172     0.14489E+02 
  66016.4449     0.14242E+02 
  66056.7726     0.13999E+02 
  66097.1003     0.13760E+02 
  66137.4280     0.13524E+02 
  66177.7557     0.13292E+02 
  66218.0834     0.13063E+02 
  66258.4111     0.12837E+02 
  66298.7388     0.12615E+02 
  66339.0665     0.12395E+02 
  66379.3942     0.12179E+02 
  66419.7219     0.11966E+02 
  66460.0496     0.11757E+02 
  66500.3773     0.11550E+02 
  66540.7050     0.11346E+02 
  66581.0327     0.11145E+02 
  66621.3604     0.10946E+02 
  66661.6881     0.10751E+02 
  66702.0158     0.10558E+02 
  66742.3435     0.10369E+02 
  66782.6712     0.10181E+02 
  66822.9989     0.99967E+01 
  66863.3266     0.98147E+01 
  66903.6543     0.96352E+01 
  66943.9820     0.94583E+01 
  66984.3097     0.92838E+01 
  67024.6374     0.91118E+01 
  67064.9651     0.89421E+01 
  67105.2928     0.87749E+01 
  67145.6205     0.86099E+01 
  67185.9482     0.84473E+01 
  67226.2759     0.82869E+01 
  67266.6036     0.81287E+01 
  67306.9313     0.79727E+01 
  67347.2590     0.78189E+01 
  67387.5867     0.76672E+01 
  67427.9144     0.75176E+01 
  67468.2421     0.73701E+01 
  67508.5698     0.72247E+01 
  67548.8975     0.70812E+01 
  67589.2252     0.69397E+01 
  67629.5529     0.68002E+01 
  67669.8806     0.66627E+01 
  67710.2083     0.65270E+01 
  67750.5360     0.63932E+01 
  67790.8637     0.62613E+01 
  67831.1914     0.61312E+01 
  67871.5191     0.60029E+01 
  67911.8468     0.58764E+01 
  67952.1745     0.57517E+01 
  67992.5022     0.56287E+01 
  68032.8299     0.55074E+01 
  68073.1576     0.53878E+01 
  68113.4853     0.52700E+01 
  68153.8130     0.51537E+01 
  68194.1407     0.50391E+01 
  68234.4684     0.49262E+01 
  68274.7961     0.48148E+01 
  68315.1238     0.47050E+01 
  68355.4515     0.45968E+01 
  68395.7792     0.44901E+01 
  68436.1069     0.43850E+01 
  68476.4346     0.42814E+01 
  68516.7623     0.41793E+01 
  68557.0900     0.40786E+01 
  68597.4177     0.39795E+01 
  68637.7454     0.38818E+01 
  68678.0731     0.37855E+01 
  68718.4008     0.36906E+01 
  68758.7285     0.35972E+01 
  68799.0562     0.35052E+01 
  68839.3839     0.34145E+01 
  68879.7116     0.33253E+01 
  68920.0393     0.32373E+01 
  68960.3670     0.31508E+01 
  69000.6947     0.30655E+01 
  69041.0224     0.29816E+01 
  69081.3501     0.28991E+01 
  69121.6778     0.28178E+01 
  69162.0055     0.27378E+01 
  69202.3332     0.26591E+01 
  69242.6609     0.25816E+01 
  69282.9886     0.25055E+01 
  69323.3163     0.24305E+01 
  69363.6440     0.23569E+01 
  69403.9717     0.22845E+01 
  69444.2994     0.22133E+01 
  69484.6271     0.21433E+01 
  69524.9548     0.20745E+01 
  69565.2825     0.20070E+01 
  69605.6102     0.19406E+01 
  69645.9379     0.18754E+01 
  69686.2656     0.18115E+01 
  69726.5933     0.17487E+01 
  69766.9210     0.16871E+01 
  69807.2487     0.16266E+01 
  69847.5764     0.15673E+01 
  69887.9041     0.15092E+01 
  69928.2318     0.14522E+01 
  69968.5595     0.13964E+01 
  70008.8872     0.13417E+01 
  70049.2149     0.12882E+01 
  70089.5426     0.12358E+01 
  70129.8703     0.11845E+01 
  70170.1980     0.11344E+01 
  70210.5257     0.10853E+01 
  70250.8534     0.10375E+01 
  70291.1811     0.99069E+00 
  70331.5088     0.94503E+00 
  70371.8365     0.90050E+00 
  70412.1642     0.85708E+00 
  70452.4919     0.81478E+00 
  70492.8196     0.77358E+00 
  70533.1473     0.73350E+00 
  70573.4750     0.69452E+00 
  70613.8027     0.65666E+00 
  70654.1304     0.61990E+00 
  70694.4581     0.58426E+00 
  70734.7858     0.54972E+00 
  70775.1135     0.51629E+00 
  70815.4412     0.48397E+00 
  70855.7689     0.45276E+00 
  70896.0966     0.42266E+00 
  70936.4243     0.39368E+00 
  70976.7520     0.36580E+00 
  71017.0797     0.33905E+00 
  71057.4074     0.31341E+00 
  71097.7351     0.28890E+00 
  71138.0628     0.26550E+00 
  71178.3905     0.24323E+00 
  71218.7182     0.22209E+00 
  71259.0459     0.20208E+00 
  71299.3736     0.18321E+00 
  71339.7013     0.16548E+00 
  71380.0290     0.14889E+00 
  71420.3567     0.13344E+00 
  71460.6844     0.11915E+00 
  71501.0121     0.10602E+00 
  71541.3398     0.94043E-01 
  71581.6675     0.83236E-01 
  71621.9952     0.73601E-01 
  71662.3229     0.65145E-01 
  71702.6506     0.57873E-01 
  71742.9783     0.51791E-01 
  71783.3060     0.46907E-01 
  71823.6337     0.43226E-01 
  71863.9614     0.40757E-01 
  71904.2891     0.39506E-01 
  71944.6168     0.39481E-01 
  71984.9445     0.40691E-01 
  72025.2722     0.43143E-01 
  72065.5999     0.46845E-01 
  72105.9276     0.51808E-01 
  72146.2553     0.58039E-01 
  72186.5830     0.65548E-01 
  72226.9107     0.74346E-01 
  72267.2384     0.84441E-01 
  72307.5661     0.95845E-01 
  72347.8938     0.10857E+00 
  72388.2215     0.12262E+00 
  72428.5492     0.13801E+00 
  72468.8769     0.15476E+00 
  72509.2046     0.17287E+00 
  72549.5323     0.19235E+00 
  72589.8600     0.21323E+00 
