      -66.30030      0.60825286E-014
      -62.24700      0.54731206E-013
      -58.19371      0.44506617E-012
      -54.14041      0.32707929E-011
      -50.08711      0.21723044E-010
      -46.03382      0.13038510E-009
      -41.98052      0.70725420E-009
      -37.92723      0.34670849E-008
      -33.87393      0.15360184E-007
      -29.82063      0.61499827E-007
      -25.76734      0.22253635E-006
      -21.71404      0.72775300E-006
      -17.66074      0.21509651E-005
      -13.60745      0.57460049E-005
       -9.55415      0.13874273E-004
       -5.50086      0.30284105E-004
       -1.44756      0.59767473E-004
        2.60574      0.10668780E-003
        6.65903      0.17236501E-003
       10.71233      0.25235151E-003
       14.76563      0.33559549E-003
       18.81892      0.40725228E-003
       22.87222      0.45489463E-003
       26.92551      0.47508610E-003
       30.97881      0.47597016E-003
       35.03211      0.47332159E-003
       39.08540      0.48163353E-003
       43.13870      0.50538604E-003
       47.19200      0.53591959E-003
       51.24529      0.55593859E-003
       55.29859      0.54888766E-003
       59.35189      0.50758317E-003
       63.40518      0.43745081E-003
       67.45848      0.35358784E-003
       71.51177      0.27460774E-003
       75.56507      0.21724722E-003
       79.61837      0.19395819E-003
       83.67166      0.21330866E-003
       87.72496      0.28207002E-003
       91.77826      0.40870184E-003
       95.83155      0.60942216E-003
       99.88485      0.91887255E-003
      103.93814      0.14064061E-002
      107.99144      0.21945143E-002
      112.04474      0.34665993E-002
      116.09803      0.54411847E-002
      120.15133      0.82916323E-002
      124.20463      0.12018489E-001
      128.25792      0.16330527E-001
      132.31122      0.20624050E-001
      136.36452      0.24123151E-001
      140.41781      0.26151013E-001
      144.47111      0.26402679E-001
      148.52440      0.25065037E-001
      152.57770      0.22711402E-001
      156.63100      0.20032452E-001
      160.68429      0.17556955E-001
      164.73759      0.15504377E-001
      168.79089      0.13814800E-001
      172.84418      0.12294231E-001
      176.89748      0.10767096E-001
      180.95077      0.91590793E-002
      185.00407      0.75006309E-002
      189.05737      0.58876516E-002
      193.11066      0.44381660E-002
      197.16396      0.32609091E-002
      201.21726      0.24331425E-002
      205.27055      0.19823809E-002
      209.32385      0.18732810E-002
      213.37714      0.20067290E-002
      217.43044      0.22382125E-002
      221.48374      0.24157379E-002
      225.53703      0.24260026E-002
      229.59033      0.22285750E-002
      233.64363      0.18604918E-002
      237.69692      0.14092791E-002
      241.75022      0.97048673E-003
      245.80352      0.61266806E-003
      249.85681      0.36417782E-003
      253.91011      0.22065446E-003
      257.96340      0.16156963E-003
      262.01670      0.16396877E-003
      266.07000      0.20818287E-003
      270.12329      0.27742518E-003
      274.17659      0.35650015E-003
      278.22989      0.43354932E-003
      282.28318      0.50457337E-003
      286.33648      0.57652544E-003
      290.38977      0.66424457E-003
      294.44307      0.78056260E-003
      298.49637      0.92518093E-003
      302.54966      0.10814114E-002
      306.60296      0.12267378E-002
      310.65626      0.13541751E-002
      314.70955      0.14921169E-002
      318.76285      0.17072074E-002
      322.81614      0.20808129E-002
      326.86944      0.26632067E-002
      330.92274      0.34252300E-002
      334.97603      0.42365513E-002
      339.02933      0.48933397E-002
      343.08263      0.51930820E-002
      347.13592      0.50224163E-002
      351.18922      0.44091451E-002
      355.24252      0.35080882E-002
      359.29581      0.25315879E-002
      363.34911      0.16682424E-002
      367.40240      0.10343340E-002
      371.45570      0.67617800E-003
      375.50900      0.61270727E-003
      379.56229      0.89450554E-003
      383.61559      0.16559026E-002
      387.66889      0.31365940E-002
      391.72218      0.56440884E-002
      395.77548      0.94346748E-002
      399.82877      0.14531786E-001
      403.88207      0.20570761E-001
      407.93537      0.26800855E-001
      411.98866      0.32315789E-001
      416.04196      0.36421788E-001
      420.09526      0.38906078E-001
      424.14855      0.39996875E-001
      428.20185      0.40033191E-001
      432.25514      0.39110255E-001
      436.30844      0.36998762E-001
      440.36174      0.33404453E-001
      444.41503      0.28344086E-001
      448.46833      0.22326525E-001
      452.52163      0.16204765E-001
      456.57492      0.10825102E-001
      460.62822      0.67186039E-002
      464.68152      0.39966144E-002
      468.73481      0.24438291E-002
      472.78811      0.16961892E-002
      476.84140      0.13947639E-002
      480.89470      0.12700130E-002
      484.94800      0.11647837E-002
      489.00129      0.10223731E-002
      493.05459      0.86084338E-003
      497.10789      0.74607654E-003
      501.16118      0.76986862E-003
      505.21448      0.10323677E-002
      509.26777      0.16204968E-002
      513.32107      0.25734028E-002
      517.37437      0.38394893E-002
      521.42766      0.52518157E-002
      525.48096      0.65596658E-002
      529.53426      0.75341079E-002
      533.58755      0.81162937E-002
      537.64085      0.85293147E-002
      541.69415      0.92657736E-002
      545.74744      0.10909901E-001
      549.80074      0.13838211E-001
      553.85403      0.17927971E-001
      557.90733      0.22441442E-001
      561.96063      0.26203270E-001
      566.01392      0.28042260E-001
      570.06722      0.27296575E-001
      574.12052      0.24109371E-001
      578.17381      0.19350347E-001
      582.22711      0.14225523E-001
      586.28040      0.98142754E-002
      590.33370      0.67743328E-002
      594.38700      0.53096826E-002
      598.44029      0.53352920E-002
      602.49359      0.66993414E-002
      606.54689      0.93408221E-002
      610.60018      0.13313188E-001
      614.65348      0.18658627E-001
      618.70677      0.25178100E-001
      622.76007      0.32213567E-001
      626.81337      0.38602951E-001
      630.86666      0.42922535E-001
      634.91996      0.43976560E-001
      638.97326      0.41309670E-001
      643.02655      0.35449183E-001
      647.07985      0.27716709E-001
      651.13315      0.19707051E-001
      655.18644      0.12724829E-001
      659.23974      0.74557874E-002
      663.29303      0.39651222E-002
      667.34633      0.19197338E-002
      671.39963      0.85576447E-003
      675.45292      0.36394135E-003
      679.50622      0.16168313E-003
      683.55952      0.86421075E-004
      687.61281      0.58397702E-004
      691.66611      0.44427948E-004
      695.71940      0.33532036E-004
      699.77270      0.23624726E-004
      703.82600      0.15271953E-004
      707.87929      0.93113281E-005
      711.93259      0.66194538E-005
      715.98589      0.95360212E-005
      720.03918      0.25597926E-004
      724.09248      0.75366370E-004
      728.14577      0.20640199E-003
      732.19907      0.51281589E-003
      736.25237      0.11521444E-002
      740.30566      0.23398149E-002
      744.35896      0.42952029E-002
      748.41226      0.71276207E-002
      752.46555      0.10693420E-001
      756.51885      0.14507123E-001
      760.57215      0.17801874E-001
      764.62544      0.19768504E-001
      768.67874      0.19881779E-001
      772.73203      0.18138130E-001
      776.78533      0.15066102E-001
      780.83863      0.11516664E-001
      784.89192      0.83832563E-002
      788.94522      0.64280480E-002
      792.99852      0.62859885E-002
      797.05181      0.85649615E-002
      801.10511      0.13864337E-001
      805.15840      0.22561454E-001
      809.21170      0.34374269E-001
      813.26500      0.47933751E-001
      817.31829      0.60739791E-001
      821.37159      0.69758648E-001
      825.42489      0.72529207E-001
      829.47818      0.68226230E-001
      833.53148      0.58044963E-001
      837.58477      0.44658830E-001
      841.63807      0.31085676E-001
      845.69137      0.19620883E-001
      849.74466      0.11340622E-001
      853.79796      0.62382392E-002
      857.85126      0.37005560E-002
      861.90455      0.29657468E-002
      865.95785      0.33675630E-002
      870.01115      0.43744355E-002
      874.06444      0.55424203E-002
      878.11774      0.64949191E-002
      882.17103      0.69671080E-002
      886.22433      0.68744341E-002
      890.27763      0.63334704E-002
      894.33092      0.55949644E-002
      898.38422      0.49143053E-002
      902.43752      0.44318185E-002
      906.49081      0.41293276E-002
      910.54411      0.38781811E-002
      914.59740      0.35374843E-002
      918.65070      0.30382112E-002
      922.70400      0.24093664E-002
      926.75729      0.17456526E-002
      930.81059      0.11498328E-002
      934.86389      0.68778279E-003
      938.91718      0.37487646E-003
      942.97048      0.18864788E-003
      947.02378      0.91023435E-004
      951.07707      0.46187080E-004
      955.13037      0.29445326E-004
      959.18366      0.30210458E-004
      963.23696      0.55978765E-004
      967.29026      0.14577085E-003
      971.34355      0.40214397E-003
      975.39685      0.10471523E-002
      979.45015      0.24914292E-002
      983.50344      0.53717051E-002
      987.55674      0.10473899E-001
      991.61003      0.18459328E-001
      995.66333      0.29402203E-001
      999.71663      0.42323999E-001
     1003.76992      0.55059595E-001
     1007.82322      0.64731851E-001
     1011.87652      0.68776749E-001
     1015.92981      0.66039551E-001
     1019.98311      0.57306811E-001
     1024.03640      0.44941773E-001
     1028.08970      0.31852381E-001
     1032.14300      0.20403150E-001
     1036.19629      0.11812975E-001
     1040.24959      0.61836688E-002
     1044.30289      0.29287950E-002
     1048.35618      0.12579100E-002
     1052.40948      0.49328290E-003
     1056.46278      0.18065422E-003
     1060.51607      0.66655466E-004
     1064.56937      0.30289216E-004
     1068.62266      0.21130491E-004
     1072.67596      0.20342689E-004
     1076.72926      0.21229571E-004
     1080.78255      0.21334535E-004
     1084.83585      0.19846207E-004
     1088.88915      0.16856512E-004
     1092.94244      0.13000326E-004
     1096.99574      0.90815768E-005
     1101.04903      0.57395933E-005
     1105.10233      0.32799676E-005
     1109.15563      0.16943703E-005
     1113.20892      0.79111996E-006
     1117.26222      0.33388248E-006
     1121.31552      0.12766617E-006
     1125.36881      0.46366504E-007
     1129.42211      0.29613492E-007
     1133.47540      0.96288589E-007
     1137.52870      0.48529948E-006
     1141.58200      0.22934119E-005
     1145.63529      0.98126494E-005
     1149.68859      0.37946126E-004
     1153.74189      0.13261383E-003
     1157.79518      0.41884050E-003
     1161.84848      0.11954925E-002
     1165.90178      0.30837801E-002
     1169.95507      0.71888317E-002
     1174.00837      0.15145082E-001
     1178.06166      0.28835230E-001
     1182.11496      0.49615113E-001
     1186.16826      0.77151483E-001
     1190.22155      0.10842199     
     1194.27485      0.13770291     
     1198.32815      0.15807149     
     1202.38144      0.16404081     
     1206.43474      0.15401806     
     1210.48803      0.13115516     
     1214.54133      0.10209468     
     1218.59463      0.74413403E-001
     1222.64792      0.54198799E-001
     1226.70122      0.44764069E-001
     1230.75452      0.46570513E-001
     1234.80781      0.57840464E-001
     1238.86111      0.75420586E-001
     1242.91440      0.95781207E-001
     1246.96770      0.11605874     
     1251.02100      0.13473325     
     1255.07429      0.15140932     
     1259.12759      0.16567808     
     1263.18089      0.17589388     
     1267.23418      0.17903026     
     1271.28748      0.17204816     
     1275.34078      0.15392639     
     1279.39407      0.12683866     
     1283.44737      0.95561623E-001
     1287.50066      0.65520986E-001
     1291.55396      0.40766294E-001
     1295.60726      0.22977593E-001
     1299.66055      0.11720701E-001
     1303.71385      0.54074604E-002
     1307.76715      0.22556694E-002
     1311.82044      0.85057749E-003
     1315.87374      0.28990723E-003
     1319.92703      0.89307012E-004
     1323.98033      0.24868938E-004
     1328.03363      0.62870057E-005
     1332.08692      0.15874194E-005
     1336.14022      0.10857146E-005
     1340.19352      0.35054876E-005
     1344.24681      0.13576768E-004
     1348.30011      0.48204920E-004
     1352.35341      0.15477185E-003
     1356.40670      0.44909931E-003
     1360.46000      0.11776922E-002
     1364.51329      0.27910005E-002
     1368.56659      0.59776035E-002
     1372.61989      0.11570025E-001
     1376.67318      0.20238746E-001
     1380.72648      0.31994814E-001
     1384.77978      0.45712266E-001
     1388.83307      0.59029155E-001
     1392.88637      0.68902320E-001
     1396.93966      0.72719886E-001
     1400.99296      0.69436939E-001
     1405.04626      0.60067584E-001
     1409.09955      0.47219182E-001
     1413.15285      0.33953831E-001
     1417.20615      0.22642924E-001
     1421.25944      0.14378631E-001
     1425.31274      0.90727386E-002
     1429.36603      0.59787860E-002
     1433.41933      0.42602238E-002
     1437.47263      0.33658684E-002
     1441.52592      0.31813289E-002
     1445.57922      0.40492488E-002
     1449.63252      0.67532181E-002
     1453.68581      0.12494915E-001
     1457.73911      0.22856619E-001
     1461.79241      0.39804177E-001
     1465.84570      0.65916205E-001
     1469.89900      0.10503155     
     1473.95229      0.16313238     
     1478.00559      0.24851580     
     1482.05889      0.36971517     
     1486.11218      0.53021371     
     1490.16548      0.72128720     
     1494.21878      0.91725467     
     1498.27207       1.0783300     
     1502.32537       1.1629446     
     1506.37866       1.1449655     
     1510.43196       1.0264568     
     1514.48526      0.83817323     
     1518.53855      0.62746682     
     1522.59185      0.44093365     
     1526.64515      0.31094502     
     1530.69844      0.25061204     
     1534.75174      0.25557724     
     1538.80503      0.30844115     
     1542.85833      0.38341987     
     1546.91163      0.45168544     
     1550.96492      0.48828255     
     1555.01822      0.47928837     
     1559.07152      0.42579312     
     1563.12481      0.34203917     
     1567.17811      0.24844006     
     1571.23141      0.16332702     
     1575.28470      0.97562993E-001
     1579.33800      0.53723197E-001
     1583.39129      0.28649506E-001
     1587.44459      0.16908520E-001
     1591.49789      0.13289117E-001
     1595.55118      0.13842420E-001
     1599.60448      0.15939281E-001
     1603.65778      0.18013646E-001
     1607.71107      0.19351610E-001
     1611.76437      0.19925769E-001
     1615.81766      0.20139743E-001
     1619.87096      0.20455100E-001
     1623.92426      0.21056091E-001
     1627.97755      0.21772550E-001
     1632.03085      0.22352123E-001
     1636.08415      0.22937979E-001
     1640.13744      0.24435751E-001
     1644.19074      0.28458992E-001
     1648.24403      0.36726597E-001
     1652.29733      0.50074448E-001
     1656.35063      0.67537708E-001
     1660.40392      0.86122159E-001
     1664.45722      0.10174305     
     1668.51052      0.11130550     
     1672.56381      0.11524229     
     1676.61711      0.11940477     
     1680.67041      0.13523592     
     1684.72370      0.17749960     
     1688.77700      0.25935097     
     1692.83029      0.38546990     
     1696.88359      0.54561909     
     1700.93689      0.71257215     
     1704.99018      0.84791993     
     1709.04348      0.91549187     
     1713.09678      0.89671691     
     1717.15007      0.79951376     
     1721.20337      0.65531224     
     1725.25666      0.50583673     
     1729.30996      0.38696751     
     1733.36326      0.31739089     
     1737.41655      0.29570636     
     1741.46985      0.30506565     
     1745.52315      0.32201326     
     1749.57644      0.32586464     
     1753.62974      0.30548322     
     1757.68304      0.26137506     
     1761.73633      0.20289568     
     1765.78963      0.14255911     
     1769.84292      0.90579622E-001
     1773.89622      0.52025927E-001
     1777.94952      0.27008332E-001
     1782.00281      0.12671758E-001
     1786.05611      0.53731023E-002
     1790.10941      0.20590031E-002
     1794.16270      0.71306632E-003
     1798.21600      0.22317350E-003
     1802.26929      0.63123986E-004
     1806.32259      0.16135594E-004
     1810.37589      0.37274694E-005
     1814.42918      0.77818292E-006
     1818.48248      0.14682084E-006
     1822.53578      0.25034109E-007
     1826.58907      0.38575798E-008
     1830.64237      0.53720009E-009
     1834.69566      0.67607611E-010
     1838.74896      0.76894178E-011
     1842.80226      0.79036861E-012
     1846.85555      0.73418289E-013
     1850.90885      0.61633552E-014
     1854.96215      0.46759352E-015
     1859.01544      0.32059601E-016
     1863.06874      0.19864888E-017
     1867.12204      0.11123782E-018
     1871.17533      0.56293358E-020
     1875.22863      0.25745433E-021
     1879.28192      0.10640980E-022
     1883.33522      0.39746727E-024
     1887.38852      0.13417125E-025
     1891.44181      0.40931338E-027
     1895.49511      0.11284719E-028
     1899.54841      0.28116673E-030
     1903.60170      0.63310458E-032
     1907.65500      0.12883247E-033
     1911.70829      0.23692646E-035
     1915.76159      0.39376774E-037
     1919.81489      0.59143235E-039
     1923.86818      0.80280184E-041
     1927.92148      0.98480445E-043
     1931.97478      0.10917671E-044
     1936.02807      0.10938263E-046
     1940.08137      0.99038725E-049
     1944.13466      0.81040124E-051
     1948.18796      0.59928513E-053
     1952.24126      0.40050253E-055
     1956.29455      0.24188858E-057
     1960.34785      0.13202733E-059
     1964.40115      0.65125438E-062
     1968.45444      0.29031925E-064
     1972.50774      0.11696054E-066
     1976.56104      0.42583488E-069
     1980.61433      0.14011398E-071
     1984.66763      0.41663912E-074
     1988.72092      0.11196363E-076
     1992.77422      0.27191444E-079
     1996.82752      0.59679601E-082
     2000.88081      0.11837443E-084
     2004.93411      0.21219163E-087
     2008.98741      0.34374545E-090
     2013.04070      0.50325026E-093
     2017.09400      0.66583929E-096
     2021.14729      0.79614684E-099
     2025.20059      0.86031063E-102
     2029.25389      0.84014792E-105
     2033.30718      0.74147169E-108
     2037.36048      0.59138697E-111
     2041.41378      0.42627246E-114
     2045.46707      0.27767780E-117
     2049.52037      0.16346824E-120
     2053.57366       0.0000000     
     2057.62696       0.0000000     
     2061.68026       0.0000000     
     2065.73355       0.0000000     
     2069.78685       0.0000000     
     2073.84015       0.0000000     
     2077.89344       0.0000000     
     2081.94674       0.0000000     
     2086.00004       0.0000000     
     2090.05333       0.0000000     
     2094.10663       0.0000000     
     2098.15992       0.0000000     
     2102.21322       0.0000000     
     2106.26652       0.0000000     
     2110.31981       0.0000000     
     2114.37311       0.0000000     
     2118.42641       0.0000000     
     2122.47970       0.0000000     
     2126.53300       0.0000000     
     2130.58629       0.0000000     
     2134.63959       0.0000000     
     2138.69289       0.0000000     
     2142.74618       0.0000000     
     2146.79948       0.0000000     
     2150.85278       0.0000000     
     2154.90607       0.0000000     
     2158.95937       0.0000000     
     2163.01267       0.0000000     
     2167.06596       0.0000000     
     2171.11926       0.0000000     
     2175.17255       0.0000000     
     2179.22585       0.0000000     
     2183.27915       0.0000000     
     2187.33244       0.0000000     
     2191.38574       0.0000000     
     2195.43904       0.0000000     
     2199.49233       0.0000000     
     2203.54563       0.0000000     
     2207.59892       0.0000000     
     2211.65222       0.0000000     
     2215.70552       0.0000000     
     2219.75881       0.0000000     
     2223.81211       0.0000000     
     2227.86541       0.0000000     
     2231.91870       0.0000000     
     2235.97200       0.0000000     
     2240.02529       0.0000000     
     2244.07859       0.0000000     
     2248.13189       0.0000000     
     2252.18518       0.0000000     
     2256.23848       0.0000000     
     2260.29178       0.0000000     
     2264.34507       0.0000000     
     2268.39837       0.0000000     
     2272.45167       0.0000000     
     2276.50496       0.0000000     
     2280.55826       0.0000000     
     2284.61155       0.0000000     
     2288.66485       0.0000000     
     2292.71815       0.0000000     
     2296.77144       0.0000000     
     2300.82474       0.0000000     
     2304.87804       0.0000000     
     2308.93133       0.0000000     
     2312.98463       0.0000000     
     2317.03792       0.0000000     
     2321.09122       0.0000000     
     2325.14452       0.0000000     
     2329.19781       0.0000000     
     2333.25111       0.0000000     
     2337.30441       0.0000000     
     2341.35770       0.0000000     
     2345.41100       0.0000000     
     2349.46429       0.0000000     
     2353.51759       0.0000000     
     2357.57089       0.0000000     
     2361.62418       0.0000000     
     2365.67748       0.0000000     
     2369.73078       0.0000000     
     2373.78407       0.0000000     
     2377.83737       0.0000000     
     2381.89067       0.0000000     
     2385.94396       0.0000000     
     2389.99726       0.0000000     
     2394.05055       0.0000000     
     2398.10385       0.0000000     
     2402.15715       0.0000000     
     2406.21044       0.0000000     
     2410.26374       0.0000000     
     2414.31704       0.0000000     
     2418.37033       0.0000000     
     2422.42363       0.0000000     
     2426.47692       0.0000000     
     2430.53022       0.0000000     
     2434.58352       0.0000000     
     2438.63681       0.0000000     
     2442.69011       0.0000000     
     2446.74341       0.0000000     
     2450.79670       0.0000000     
     2454.85000       0.0000000     
     2458.90329       0.0000000     
     2462.95659       0.0000000     
     2467.00989       0.0000000     
     2471.06318       0.0000000     
     2475.11648       0.0000000     
     2479.16978       0.0000000     
     2483.22307       0.0000000     
     2487.27637       0.0000000     
     2491.32967       0.0000000     
     2495.38296       0.0000000     
     2499.43626       0.0000000     
     2503.48955       0.0000000     
     2507.54285       0.0000000     
     2511.59615       0.0000000     
     2515.64944       0.0000000     
     2519.70274       0.0000000     
     2523.75604       0.0000000     
     2527.80933       0.0000000     
     2531.86263       0.0000000     
     2535.91592       0.0000000     
     2539.96922       0.0000000     
     2544.02252       0.0000000     
     2548.07581       0.0000000     
     2552.12911       0.0000000     
     2556.18241       0.0000000     
     2560.23570       0.0000000     
     2564.28900       0.0000000     
     2568.34230       0.0000000     
     2572.39559       0.0000000     
     2576.44889       0.0000000     
     2580.50218       0.0000000     
     2584.55548       0.0000000     
     2588.60878       0.0000000     
     2592.66207       0.0000000     
     2596.71537       0.0000000     
     2600.76867       0.0000000     
     2604.82196       0.0000000     
     2608.87526       0.0000000     
     2612.92855       0.0000000     
     2616.98185       0.0000000     
     2621.03515       0.0000000     
     2625.08844       0.0000000     
     2629.14174       0.0000000     
     2633.19504       0.0000000     
     2637.24833       0.0000000     
     2641.30163       0.0000000     
     2645.35492       0.0000000     
     2649.40822       0.0000000     
     2653.46152       0.0000000     
     2657.51481       0.0000000     
     2661.56811       0.0000000     
     2665.62141       0.0000000     
     2669.67470       0.0000000     
     2673.72800       0.0000000     
     2677.78130       0.0000000     
     2681.83459       0.0000000     
     2685.88789       0.0000000     
     2689.94118       0.0000000     
     2693.99448       0.0000000     
     2698.04778       0.0000000     
     2702.10107       0.0000000     
     2706.15437       0.0000000     
     2710.20767       0.0000000     
     2714.26096       0.0000000     
     2718.31426       0.0000000     
     2722.36755       0.0000000     
     2726.42085       0.0000000     
     2730.47415       0.0000000     
     2734.52744       0.0000000     
     2738.58074       0.0000000     
     2742.63404       0.0000000     
     2746.68733       0.0000000     
     2750.74063       0.0000000     
     2754.79392       0.0000000     
     2758.84722       0.0000000     
     2762.90052      0.92988835E-121
     2766.95381      0.14693150E-117
     2771.00711      0.20981539E-114
     2775.06041      0.27076850E-111
     2779.11370      0.31578922E-108
     2783.16700      0.33283946E-105
     2787.22030      0.31703752E-102
     2791.27359      0.27291341E-099
     2795.32689      0.21231342E-096
     2799.38018      0.14926857E-093
     2803.43348      0.94841329E-091
     2807.48678      0.54458447E-088
     2811.54007      0.28259940E-085
     2815.59337      0.13253042E-082
     2819.64667      0.56169201E-080
     2823.69996      0.21513907E-077
     2827.75326      0.74469540E-075
     2831.80655      0.23295735E-072
     2835.85985      0.65858602E-070
     2839.91315      0.16826235E-067
     2843.96644      0.38850781E-065
     2848.01974      0.81068271E-063
     2852.07304      0.15287639E-060
     2856.12633      0.26053632E-058
     2860.17963      0.40126797E-056
     2864.23292      0.55852042E-054
     2868.28622      0.70255767E-052
     2872.33952      0.79866242E-050
     2876.39281      0.82050810E-048
     2880.44611      0.76179980E-046
     2884.49941      0.63920062E-044
     2888.55270      0.48469872E-042
     2892.60600      0.33215814E-040
     2896.65930      0.20571042E-038
     2900.71259      0.11513465E-036
     2904.76589      0.58236349E-035
     2908.81918      0.26620768E-033
     2912.87248      0.10997283E-031
     2916.92578      0.41057126E-030
     2920.97907      0.13852560E-028
     2925.03237      0.42238639E-027
     2929.08567      0.11639334E-025
     2933.13896      0.28985760E-024
     2937.19226      0.65234843E-023
     2941.24555      0.13268227E-021
     2945.29885      0.24388468E-020
     2949.35215      0.40513009E-019
     2953.40544      0.60819498E-018
     2957.45874      0.82514357E-017
     2961.51204      0.10117065E-015
     2965.56533      0.11210318E-014
     2969.61863      0.11225862E-013
     2973.67193      0.10159207E-012
     2977.72522      0.83087988E-012
     2981.77852      0.61412255E-011
     2985.83181      0.41021374E-010
     2989.88511      0.24763026E-009
     2993.93841      0.13509385E-008
     2997.99170      0.66604841E-008
     3002.04500      0.29676615E-007
     3006.09830      0.11949818E-006
     3010.15159      0.43485709E-006
     3014.20489      0.14301125E-005
     3018.25818      0.42504232E-005
     3022.31148      0.11416487E-004
     3026.36478      0.27712212E-004
     3030.41807      0.60792252E-004
     3034.47137      0.12052125E-003
     3038.52467      0.21593218E-003
     3042.57796      0.34963063E-003
     3046.63126      0.51161106E-003
     3050.68455      0.67656376E-003
     3054.73785      0.80856677E-003
     3058.79115      0.87329585E-003
     3062.84444      0.85240358E-003
     3066.89774      0.75191281E-003
     3070.95104      0.59941562E-003
     3075.00433      0.43184411E-003
     3079.05763      0.28116701E-003
     3083.11093      0.16543994E-003
     3087.16422      0.87974321E-004
     3091.21752      0.42278062E-004
     3095.27081      0.18362690E-004
     3099.32411      0.72095854E-005
     3103.37741      0.25616951E-005
     3107.43070      0.82936435E-006
     3111.48400      0.25565972E-006
     3115.53730      0.95675836E-007
     3119.59059      0.74413103E-007
     3123.64389      0.10360347E-006
     3127.69718      0.15723055E-006
     3131.75048      0.22375627E-006
     3135.80378      0.29064359E-006
     3139.85707      0.34251815E-006
     3143.91037      0.36546412E-006
     3147.96367      0.35272927E-006
     3152.01696      0.30781077E-006
     3156.07026      0.24285374E-006
     3160.12355      0.17348532E-006
     3164.17685      0.11389700E-006
     3168.23015      0.78090256E-007
     3172.28344      0.10033299E-006
     3176.33674      0.31727958E-006
     3180.39004      0.12449526E-005
     3184.44333      0.46037725E-005
     3188.49663      0.15455122E-004
     3192.54993      0.46911009E-004
     3196.60322      0.12868767E-003
     3200.65652      0.31903602E-003
     3204.70981      0.71479428E-003
     3208.76311      0.14473075E-002
     3212.81641      0.26483714E-002
     3216.86970      0.43796091E-002
     3220.92300      0.65453096E-002
     3224.97630      0.88402304E-002
     3229.02959      0.10790366E-001
     3233.08289      0.11902847E-001
     3237.13618      0.11866449E-001
     3241.18948      0.10693126E-001
     3245.24278      0.87149710E-002
     3249.29607      0.64414063E-002
     3253.34937      0.43694602E-002
     3257.40267      0.28579432E-002
     3261.45596      0.21174650E-002
     3265.50926      0.22836297E-002
     3269.56255      0.34882300E-002
     3273.61585      0.58482000E-002
     3277.66915      0.93481985E-002
     3281.72244      0.13675367E-001
     3285.77574      0.18131028E-001
     3289.82904      0.21738028E-001
     3293.88233      0.23556880E-001
     3297.93563      0.23071056E-001
     3301.98893      0.20420134E-001
     3306.04222      0.16333857E-001
     3310.09552      0.11807485E-001
     3314.14881      0.77137301E-002
     3318.20211      0.45541764E-002
     3322.25541      0.24299291E-002
     3326.30870      0.11716981E-002
     3330.36200      0.51059456E-003
     3334.41530      0.20108285E-003
     3338.46859      0.71567006E-004
     3342.52189      0.23019702E-004
     3346.57518      0.66944673E-005
     3350.62848      0.17732683E-005
     3354.68178      0.48326619E-006
     3358.73507      0.34277379E-006
     3362.78837      0.89599015E-006
     3366.84167      0.27584582E-005
     3370.89496      0.78120862E-005
     3374.94826      0.20025183E-004
     3379.00156      0.46439822E-004
     3383.05485      0.97509419E-004
     3387.10815      0.18564797E-003
     3391.16144      0.32134457E-003
     3395.21474      0.50803126E-003
     3399.26804      0.73927932E-003
     3403.32133      0.10023372E-002
     3407.37463      0.12881044E-002
     3411.42793      0.16005473E-002
     3415.48122      0.19545019E-002
     3419.53452      0.23565518E-002
     3423.58781      0.27783900E-002
     3427.64111      0.31442290E-002
     3431.69441      0.33497192E-002
     3435.74770      0.33082308E-002
     3439.80100      0.29974640E-002
     3443.85430      0.24756470E-002
     3447.90759      0.18567854E-002
     3451.96089      0.12619448E-002
     3456.01418      0.77625166E-003
     3460.06748      0.43187641E-003
     3464.12078      0.21724996E-003
     3468.17407      0.98808164E-004
     3472.22737      0.40693019E-004
     3476.28067      0.15399945E-004
     3480.33396      0.60429496E-005
     3484.38726      0.42554989E-005
     3488.44056      0.72392538E-005
     3492.49385      0.15552397E-004
     3496.54715      0.31654988E-004
     3500.60044      0.58538677E-004
     3504.65374      0.97889567E-004
     3508.70704      0.14794357E-003
     3512.76033      0.20206784E-003
     3516.81363      0.24942328E-003
     3520.86693      0.27823717E-003
     3524.92022      0.28049923E-003
     3528.97352      0.25555628E-003
     3533.02681      0.21041650E-003
     3537.08011      0.15657102E-003
     3541.13341      0.10528859E-003
     3545.18670      0.63986684E-004
     3549.24000      0.35142791E-004
     3553.29330      0.17443003E-004
     3557.34659      0.78242838E-005
     3561.39989      0.31718037E-005
     3565.45318      0.11620006E-005
     3569.50648      0.38472000E-006
     3573.55978      0.11511225E-006
     3577.61307      0.31126976E-007
     3581.66637      0.76067830E-008
     3585.71967      0.16814826E-008
     3589.77296      0.34721193E-009
     3593.82626      0.14143447E-009
     3597.87956      0.50642902E-009
     3601.93285      0.27540154E-008
     3605.98615      0.13789169E-007
     3610.03944      0.62426096E-007
     3614.09274      0.25541134E-006
     3618.14604      0.94440043E-006
     3622.19933      0.31558574E-005
     3626.25263      0.95308192E-005
     3630.30593      0.26014016E-004
     3634.35922      0.64176122E-004
     3638.41252      0.14311211E-003
     3642.46581      0.28854226E-003
     3646.51911      0.52620360E-003
     3650.57241      0.86868169E-003
     3654.62570      0.13001889E-002
     3658.67900      0.17696211E-002
     3662.73230      0.22023563E-002
     3666.78559      0.25312817E-002
     3670.83889      0.27315524E-002
     3674.89218      0.28345475E-002
     3678.94548      0.29059300E-002
     3682.99878      0.29977941E-002
     3687.05207      0.31069684E-002
     3691.10537      0.31709629E-002
     3695.15867      0.31075820E-002
     3699.21196      0.28729129E-002
     3703.26526      0.24996926E-002
     3707.31856      0.20925574E-002
     3711.37185      0.17847511E-002
     3715.42515      0.16809443E-002
     3719.47844      0.18127639E-002
     3723.53174      0.21234908E-002
     3727.58504      0.24864674E-002
     3731.63833      0.27512072E-002
     3735.69163      0.28004554E-002
     3739.74493      0.25937259E-002
     3743.79822      0.21765401E-002
     3747.85152      0.16521959E-002
     3751.90481      0.11338325E-002
     3755.95811      0.70328599E-003
     3760.01141      0.39425274E-003
     3764.06470      0.19973941E-003
     3768.11800      0.91452189E-004
     3772.17130      0.37841113E-004
     3776.22459      0.14150522E-004
     3780.27789      0.47821095E-005
     3784.33119      0.14605115E-005
     3788.38448      0.40311488E-006
     3792.43778      0.10055207E-006
     3796.49107      0.22666876E-007
     3800.54437      0.46177809E-008
     3804.59767      0.85037785E-009
     3808.65096      0.14271325E-009
     3812.70426      0.28276741E-010
     3816.75756      0.38262567E-010
     3820.81085      0.16222057E-009
     3824.86415      0.67242173E-009
     3828.91744      0.25409761E-008
     3832.97074      0.87634813E-008
     3837.02404      0.27704521E-007
     3841.07733      0.80747907E-007
     3845.13063      0.21851258E-006
     3849.18393      0.55322045E-006
     3853.23722      0.13194020E-005
     3857.29052      0.29772073E-005
     3861.34381      0.63594610E-005
     3865.39711      0.12814283E-004
     3869.45041      0.24202364E-004
     3873.50370      0.42523488E-004
     3877.55700      0.69002211E-004
     3881.61030      0.10278191E-003
     3885.66359      0.13987872E-003
     3889.71689      0.17333412E-003
     3893.77019      0.19510749E-003
     3897.82348      0.19916357E-003
     3901.87678      0.18416731E-003
     3905.93007      0.15415633E-003
     3909.98337      0.11674622E-003
     3914.03667      0.79967661E-004
     3918.08996      0.49531394E-004
     3922.14326      0.27738095E-004
     3926.19656      0.14042950E-004
     3930.24985      0.64268002E-005
     3934.30315      0.26586675E-005
     3938.35644      0.99414561E-006
     3942.40974      0.33600110E-006
     3946.46304      0.10264242E-006
     3950.51633      0.28340084E-007
     3954.56963      0.70722490E-008
     3958.62293      0.15951117E-008
     3962.67622      0.32516034E-009
     3966.72952      0.59906411E-010
     3970.78281      0.99750509E-011
     3974.83611      0.15011366E-011
     3978.88941      0.20416725E-012
     3982.94270      0.25096348E-013
     3986.99600      0.27879920E-014
