  32262.1600     0.36519E+02 
  32302.4877     0.37592E+02 
  32342.8154     0.38701E+02 
  32383.1431     0.39847E+02 
  32423.4708     0.41033E+02 
  32463.7985     0.42258E+02 
  32504.1262     0.43526E+02 
  32544.4539     0.44838E+02 
  32584.7816     0.46196E+02 
  32625.1093     0.47601E+02 
  32665.4370     0.49055E+02 
  32705.7647     0.50561E+02 
  32746.0924     0.52121E+02 
  32786.4201     0.53736E+02 
  32826.7478     0.55410E+02 
  32867.0755     0.57144E+02 
  32907.4032     0.58942E+02 
  32947.7309     0.60806E+02 
  32988.0586     0.62738E+02 
  33028.3863     0.64742E+02 
  33068.7140     0.66821E+02 
  33109.0417     0.68979E+02 
  33149.3694     0.71218E+02 
  33189.6971     0.73543E+02 
  33230.0248     0.75957E+02 
  33270.3525     0.78465E+02 
  33310.6802     0.81070E+02 
  33351.0079     0.83777E+02 
  33391.3356     0.86592E+02 
  33431.6633     0.89518E+02 
  33471.9910     0.92562E+02 
  33512.3187     0.95729E+02 
  33552.6464     0.99024E+02 
  33592.9741     0.10246E+03 
  33633.3018     0.10603E+03 
  33673.6295     0.10975E+03 
  33713.9572     0.11363E+03 
  33754.2849     0.11767E+03 
  33794.6126     0.12188E+03 
  33834.9403     0.12628E+03 
  33875.2680     0.13086E+03 
  33915.5957     0.13565E+03 
  33955.9234     0.14064E+03 
  33996.2511     0.14586E+03 
  34036.5788     0.15132E+03 
  34076.9065     0.15702E+03 
  34117.2342     0.16298E+03 
  34157.5619     0.16921E+03 
  34197.8896     0.17574E+03 
  34238.2173     0.18257E+03 
  34278.5450     0.18973E+03 
  34318.8727     0.19723E+03 
  34359.2004     0.20509E+03 
  34399.5281     0.21334E+03 
  34439.8558     0.22199E+03 
  34480.1835     0.23108E+03 
  34520.5112     0.24062E+03 
  34560.8389     0.25065E+03 
  34601.1666     0.26120E+03 
  34641.4943     0.27229E+03 
  34681.8220     0.28397E+03 
  34722.1497     0.29628E+03 
  34762.4774     0.30924E+03 
  34802.8051     0.32291E+03 
  34843.1328     0.33734E+03 
  34883.4605     0.35257E+03 
  34923.7882     0.36867E+03 
  34964.1159     0.38569E+03 
  35004.4436     0.40369E+03 
  35044.7713     0.42276E+03 
  35085.0990     0.44296E+03 
  35125.4267     0.46439E+03 
  35165.7544     0.48712E+03 
  35206.0821     0.51127E+03 
  35246.4098     0.53695E+03 
  35286.7375     0.56426E+03 
  35327.0652     0.59336E+03 
  35367.3929     0.62437E+03 
  35407.7206     0.65747E+03 
  35448.0483     0.69282E+03 
  35488.3760     0.73062E+03 
  35528.7037     0.77109E+03 
  35569.0314     0.81446E+03 
  35609.3591     0.86100E+03 
  35649.6868     0.91099E+03 
  35690.0145     0.96477E+03 
  35730.3422     0.10227E+04 
  35770.6699     0.10852E+04 
  35810.9976     0.11527E+04 
  35851.3253     0.12257E+04 
  35891.6530     0.13049E+04 
  35931.9807     0.13908E+04 
  35972.3084     0.14842E+04 
  36012.6361     0.15859E+04 
  36052.9638     0.16969E+04 
  36093.2915     0.18184E+04 
  36133.6192     0.19514E+04 
  36173.9469     0.20976E+04 
  36214.2746     0.22585E+04 
  36254.6023     0.24360E+04 
  36294.9300     0.26324E+04 
  36335.2577     0.28503E+04 
  36375.5854     0.30925E+04 
  36415.9131     0.33628E+04 
  36456.2408     0.36652E+04 
  36496.5685     0.40047E+04 
  36536.8962     0.43869E+04 
  36577.2239     0.48187E+04 
  36617.5516     0.53083E+04 
  36657.8793     0.58652E+04 
  36698.2070     0.65010E+04 
  36738.5347     0.72290E+04 
  36778.8624     0.80653E+04 
  36819.1901     0.90282E+04 
  36859.5178     0.10139E+05 
  36899.8455     0.11421E+05 
  36940.1732     0.12900E+05 
  36980.5009     0.14600E+05 
  37020.8286     0.16540E+05 
  37061.1563     0.18729E+05 
  37101.4840     0.21156E+05 
  37141.8117     0.23778E+05 
  37182.1394     0.26511E+05 
  37222.4671     0.29223E+05 
  37262.7948     0.31744E+05 
  37303.1225     0.33879E+05 
  37343.4502     0.35444E+05 
  37383.7779     0.36289E+05 
  37424.1056     0.36325E+05 
  37464.4333     0.35526E+05 
  37504.7610     0.33930E+05 
  37545.0887     0.31627E+05 
  37585.4164     0.28739E+05 
  37625.7441     0.25412E+05 
  37666.0718     0.21806E+05 
  37706.3995     0.18098E+05 
  37746.7272     0.14473E+05 
  37787.0549     0.11119E+05 
  37827.3826     0.82025E+04 
  37867.7103     0.58529E+04 
  37908.0380     0.41393E+04 
  37948.3657     0.30632E+04 
  37988.6934     0.25616E+04 
  38029.0211     0.25215E+04 
  38069.3488     0.28014E+04 
  38109.6765     0.32555E+04 
  38150.0042     0.37576E+04 
  38190.3319     0.42188E+04 
  38230.6596     0.45985E+04 
  38270.9873     0.49068E+04 
  38311.3150     0.51994E+04 
  38351.6427     0.55665E+04 
  38391.9704     0.61180E+04 
  38432.2981     0.69666E+04 
  38472.6258     0.82095E+04 
  38512.9535     0.99131E+04 
  38553.2812     0.12102E+05 
  38593.6089     0.14750E+05 
  38633.9366     0.17785E+05 
  38674.2643     0.21089E+05 
  38714.5920     0.24514E+05 
  38754.9197     0.27902E+05 
  38795.2474     0.31107E+05 
  38835.5751     0.34008E+05 
  38875.9028     0.36517E+05 
  38916.2305     0.38578E+05 
  38956.5582     0.40159E+05 
  38996.8859     0.41237E+05 
  39037.2136     0.41793E+05 
  39077.5413     0.41820E+05 
  39117.8690     0.41324E+05 
  39158.1967     0.40341E+05 
  39198.5244     0.38940E+05 
  39238.8521     0.37212E+05 
  39279.1798     0.35261E+05 
  39319.5075     0.33176E+05 
  39359.8352     0.31023E+05 
  39400.1629     0.28831E+05 
  39440.4906     0.26609E+05 
  39480.8183     0.24352E+05 
  39521.1460     0.22065E+05 
  39561.4737     0.19775E+05 
  39601.8014     0.17529E+05 
  39642.1291     0.15390E+05 
  39682.4568     0.13426E+05 
  39722.7845     0.11695E+05 
  39763.1122     0.10238E+05 
  39803.4399     0.90764E+04 
  39843.7676     0.82093E+04 
  39884.0953     0.76184E+04 
  39924.4230     0.72738E+04 
  39964.7507     0.71409E+04 
  40005.0784     0.71854E+04 
  40045.4061     0.73780E+04 
  40085.7338     0.76966E+04 
  40126.0615     0.81273E+04 
  40166.3892     0.86642E+04 
  40206.7169     0.93079E+04 
  40247.0446     0.10063E+05 
  40287.3723     0.10933E+05 
  40327.7000     0.11920E+05 
  40368.0277     0.13016E+05 
  40408.3554     0.14203E+05 
  40448.6831     0.15451E+05 
  40489.0108     0.16720E+05 
  40529.3385     0.17965E+05 
  40569.6662     0.19141E+05 
  40609.9939     0.20211E+05 
  40650.3216     0.21150E+05 
  40690.6493     0.21937E+05 
  40730.9770     0.22556E+05 
  40771.3047     0.22994E+05 
  40811.6324     0.23235E+05 
  40851.9601     0.23265E+05 
  40892.2878     0.23077E+05 
  40932.6155     0.22677E+05 
  40972.9432     0.22088E+05 
  41013.2709     0.21345E+05 
  41053.5986     0.20496E+05 
  41093.9263     0.19583E+05 
  41134.2540     0.18645E+05 
  41174.5817     0.17708E+05 
  41214.9094     0.16783E+05 
  41255.2371     0.15875E+05 
  41295.5648     0.14986E+05 
  41335.8925     0.14118E+05 
  41376.2202     0.13275E+05 
  41416.5479     0.12467E+05 
  41456.8756     0.11707E+05 
  41497.2033     0.11005E+05 
  41537.5310     0.10375E+05 
  41577.8587     0.98235E+04 
  41618.1864     0.93561E+04 
  41658.5141     0.89740E+04 
  41698.8418     0.86759E+04 
  41739.1695     0.84573E+04 
  41779.4972     0.83128E+04 
  41819.8249     0.82355E+04 
  41860.1526     0.82178E+04 
  41900.4803     0.82523E+04 
  41940.8080     0.83314E+04 
  41981.1357     0.84483E+04 
  42021.4634     0.85971E+04 
  42061.7911     0.87720E+04 
  42102.1188     0.89679E+04 
  42142.4465     0.91785E+04 
  42182.7742     0.93965E+04 
  42223.1019     0.96132E+04 
  42263.4296     0.98184E+04 
  42303.7573     0.10003E+05 
  42344.0850     0.10159E+05 
  42384.4127     0.10281E+05 
  42424.7404     0.10368E+05 
  42465.0681     0.10418E+05 
  42505.3958     0.10433E+05 
  42545.7235     0.10412E+05 
  42586.0512     0.10354E+05 
  42626.3789     0.10258E+05 
  42666.7066     0.10120E+05 
  42707.0343     0.99427E+04 
  42747.3620     0.97277E+04 
  42787.6897     0.94814E+04 
  42828.0174     0.92117E+04 
  42868.3451     0.89271E+04 
  42908.6728     0.86356E+04 
  42949.0005     0.83431E+04 
  42989.3282     0.80537E+04 
  43029.6559     0.77704E+04 
  43069.9836     0.74947E+04 
  43110.3113     0.72278E+04 
  43150.6390     0.69711E+04 
  43190.9667     0.67263E+04 
  43231.2944     0.64948E+04 
  43271.6221     0.62785E+04 
  43311.9498     0.60786E+04 
  43352.2775     0.58961E+04 
  43392.6052     0.57315E+04 
  43432.9329     0.55848E+04 
  43473.2606     0.54556E+04 
  43513.5883     0.53429E+04 
  43553.9160     0.52454E+04 
  43594.2437     0.51619E+04 
  43634.5714     0.50903E+04 
  43674.8991     0.50292E+04 
  43715.2268     0.49766E+04 
  43755.5545     0.49309E+04 
  43795.8822     0.48907E+04 
  43836.2099     0.48546E+04 
  43876.5376     0.48217E+04 
  43916.8653     0.47906E+04 
  43957.1930     0.47599E+04 
  43997.5207     0.47279E+04 
  44037.8484     0.46932E+04 
  44078.1761     0.46542E+04 
  44118.5038     0.46099E+04 
  44158.8315     0.45597E+04 
  44199.1592     0.45038E+04 
  44239.4869     0.44424E+04 
  44279.8146     0.43762E+04 
  44320.1423     0.43054E+04 
  44360.4700     0.42304E+04 
  44400.7977     0.41512E+04 
  44441.1254     0.40679E+04 
  44481.4531     0.39807E+04 
  44521.7808     0.38901E+04 
  44562.1085     0.37970E+04 
  44602.4362     0.37023E+04 
  44642.7639     0.36070E+04 
  44683.0916     0.35123E+04 
  44723.4193     0.34189E+04 
  44763.7470     0.33273E+04 
  44804.0747     0.32381E+04 
  44844.4024     0.31515E+04 
  44884.7301     0.30677E+04 
  44925.0578     0.29869E+04 
  44965.3855     0.29093E+04 
  45005.7132     0.28350E+04 
  45046.0409     0.27640E+04 
  45086.3686     0.26966E+04 
  45126.6963     0.26325E+04 
  45167.0240     0.25719E+04 
  45207.3517     0.25146E+04 
  45247.6794     0.24603E+04 
  45288.0071     0.24090E+04 
  45328.3348     0.23604E+04 
  45368.6625     0.23141E+04 
  45408.9902     0.22700E+04 
  45449.3179     0.22275E+04 
  45489.6456     0.21866E+04 
  45529.9733     0.21469E+04 
  45570.3010     0.21083E+04 
  45610.6287     0.20705E+04 
  45650.9564     0.20334E+04 
  45691.2841     0.19968E+04 
  45731.6118     0.19607E+04 
  45771.9395     0.19248E+04 
  45812.2672     0.18890E+04 
  45852.5949     0.18531E+04 
  45892.9226     0.18171E+04 
  45933.2503     0.17809E+04 
  45973.5780     0.17445E+04 
  46013.9057     0.17082E+04 
  46054.2334     0.16718E+04 
  46094.5611     0.16356E+04 
  46134.8888     0.15996E+04 
  46175.2165     0.15637E+04 
  46215.5442     0.15281E+04 
  46255.8719     0.14928E+04 
  46296.1996     0.14579E+04 
  46336.5273     0.14234E+04 
  46376.8550     0.13894E+04 
  46417.1827     0.13561E+04 
  46457.5104     0.13235E+04 
  46497.8381     0.12917E+04 
  46538.1658     0.12606E+04 
  46578.4935     0.12305E+04 
  46618.8212     0.12011E+04 
  46659.1489     0.11727E+04 
  46699.4766     0.11451E+04 
  46739.8043     0.11183E+04 
  46780.1320     0.10924E+04 
  46820.4597     0.10674E+04 
  46860.7874     0.10431E+04 
  46901.1151     0.10196E+04 
  46941.4428     0.99683E+03 
  46981.7705     0.97479E+03 
  47022.0982     0.95343E+03 
  47062.4259     0.93270E+03 
  47102.7536     0.91256E+03 
  47143.0813     0.89297E+03 
  47183.4090     0.87388E+03 
  47223.7367     0.85526E+03 
  47264.0644     0.83706E+03 
  47304.3921     0.81925E+03 
  47344.7198     0.80182E+03 
  47385.0475     0.78473E+03 
  47425.3752     0.76797E+03 
  47465.7029     0.75153E+03 
  47506.0306     0.73539E+03 
  47546.3583     0.71953E+03 
  47586.6860     0.70394E+03 
  47627.0137     0.68862E+03 
  47667.3414     0.67354E+03 
  47707.6691     0.65872E+03 
  47747.9968     0.64416E+03 
  47788.3245     0.62986E+03 
  47828.6522     0.61583E+03 
  47868.9799     0.60208E+03 
  47909.3076     0.58860E+03 
  47949.6353     0.57540E+03 
  47989.9630     0.56248E+03 
  48030.2907     0.54984E+03 
  48070.6184     0.53747E+03 
  48110.9461     0.52539E+03 
  48151.2738     0.51359E+03 
  48191.6015     0.50208E+03 
  48231.9292     0.49086E+03 
  48272.2569     0.47991E+03 
  48312.5846     0.46925E+03 
  48352.9123     0.45886E+03 
  48393.2400     0.44875E+03 
  48433.5677     0.43890E+03 
  48473.8954     0.42931E+03 
  48514.2231     0.41996E+03 
  48554.5508     0.41086E+03 
  48594.8785     0.40200E+03 
  48635.2062     0.39336E+03 
  48675.5339     0.38494E+03 
  48715.8616     0.37674E+03 
  48756.1893     0.36874E+03 
  48796.5170     0.36093E+03 
  48836.8447     0.35331E+03 
  48877.1724     0.34588E+03 
  48917.5001     0.33861E+03 
  48957.8278     0.33152E+03 
  48998.1555     0.32458E+03 
  49038.4832     0.31780E+03 
  49078.8109     0.31117E+03 
  49119.1386     0.30468E+03 
  49159.4663     0.29833E+03 
  49199.7940     0.29213E+03 
  49240.1217     0.28605E+03 
  49280.4494     0.28011E+03 
  49320.7771     0.27430E+03 
  49361.1048     0.26861E+03 
  49401.4325     0.26305E+03 
  49441.7602     0.25761E+03 
  49482.0879     0.25228E+03 
  49522.4156     0.24708E+03 
  49562.7433     0.24199E+03 
  49603.0710     0.23702E+03 
  49643.3987     0.23216E+03 
  49683.7264     0.22741E+03 
  49724.0541     0.22276E+03 
  49764.3818     0.21823E+03 
  49804.7095     0.21380E+03 
  49845.0372     0.20948E+03 
  49885.3649     0.20525E+03 
  49925.6926     0.20112E+03 
  49966.0203     0.19710E+03 
  50006.3480     0.19316E+03 
  50046.6757     0.18932E+03 
  50087.0034     0.18557E+03 
  50127.3311     0.18191E+03 
  50167.6588     0.17833E+03 
  50207.9865     0.17483E+03 
  50248.3142     0.17142E+03 
  50288.6419     0.16809E+03 
  50328.9696     0.16483E+03 
  50369.2973     0.16164E+03 
  50409.6250     0.15853E+03 
  50449.9527     0.15549E+03 
  50490.2804     0.15252E+03 
  50530.6081     0.14961E+03 
  50570.9358     0.14677E+03 
  50611.2635     0.14399E+03 
  50651.5912     0.14127E+03 
  50691.9189     0.13861E+03 
  50732.2466     0.13600E+03 
  50772.5743     0.13346E+03 
  50812.9020     0.13096E+03 
  50853.2297     0.12852E+03 
  50893.5574     0.12613E+03 
  50933.8851     0.12380E+03 
  50974.2128     0.12151E+03 
  51014.5405     0.11927E+03 
  51054.8682     0.11708E+03 
  51095.1959     0.11493E+03 
  51135.5236     0.11283E+03 
  51175.8513     0.11078E+03 
  51216.1790     0.10877E+03 
  51256.5067     0.10680E+03 
  51296.8344     0.10487E+03 
  51337.1621     0.10298E+03 
  51377.4898     0.10113E+03 
  51417.8175     0.99323E+02 
  51458.1452     0.97553E+02 
  51498.4729     0.95819E+02 
  51538.8006     0.94121E+02 
  51579.1283     0.92460E+02 
  51619.4560     0.90833E+02 
  51659.7837     0.89240E+02 
  51700.1114     0.87678E+02 
  51740.4391     0.86151E+02 
  51780.7668     0.84653E+02 
  51821.0945     0.83188E+02 
  51861.4222     0.81751E+02 
  51901.7499     0.80344E+02 
  51942.0776     0.78965E+02 
  51982.4053     0.77615E+02 
  52022.7330     0.76291E+02 
  52063.0607     0.74993E+02 
  52103.3884     0.73721E+02 
  52143.7161     0.72475E+02 
  52184.0438     0.71252E+02 
  52224.3715     0.70054E+02 
  52264.6992     0.68879E+02 
  52305.0269     0.67726E+02 
  52345.3546     0.66596E+02 
  52385.6823     0.65487E+02 
  52426.0100     0.64400E+02 
  52466.3377     0.63333E+02 
  52506.6654     0.62287E+02 
  52546.9931     0.61260E+02 
  52587.3208     0.60252E+02 
  52627.6485     0.59263E+02 
  52667.9762     0.58293E+02 
  52708.3039     0.57341E+02 
  52748.6316     0.56406E+02 
  52788.9593     0.55489E+02 
  52829.2870     0.54589E+02 
  52869.6147     0.53705E+02 
  52909.9424     0.52837E+02 
  52950.2701     0.51985E+02 
  52990.5978     0.51148E+02 
  53030.9255     0.50327E+02 
  53071.2532     0.49520E+02 
  53111.5809     0.48728E+02 
  53151.9086     0.47951E+02 
  53192.2363     0.47187E+02 
  53232.5640     0.46436E+02 
  53272.8917     0.45699E+02 
  53313.2194     0.44975E+02 
  53353.5471     0.44263E+02 
  53393.8748     0.43564E+02 
  53434.2025     0.42877E+02 
  53474.5302     0.42202E+02 
  53514.8579     0.41538E+02 
  53555.1856     0.40886E+02 
  53595.5133     0.40245E+02 
  53635.8410     0.39615E+02 
  53676.1687     0.38996E+02 
  53716.4964     0.38387E+02 
  53756.8241     0.37788E+02 
  53797.1518     0.37199E+02 
  53837.4795     0.36620E+02 
  53877.8072     0.36050E+02 
  53918.1349     0.35490E+02 
  53958.4626     0.34939E+02 
  53998.7903     0.34397E+02 
  54039.1180     0.33864E+02 
  54079.4457     0.33340E+02 
  54119.7734     0.32823E+02 
  54160.1011     0.32316E+02 
  54200.4288     0.31816E+02 
  54240.7565     0.31324E+02 
  54281.0842     0.30840E+02 
  54321.4119     0.30363E+02 
  54361.7396     0.29895E+02 
  54402.0673     0.29433E+02 
  54442.3950     0.28978E+02 
  54482.7227     0.28531E+02 
  54523.0504     0.28091E+02 
  54563.3781     0.27657E+02 
  54603.7058     0.27230E+02 
  54644.0335     0.26809E+02 
  54684.3612     0.26395E+02 
  54724.6889     0.25987E+02 
  54765.0166     0.25586E+02 
  54805.3443     0.25190E+02 
  54845.6720     0.24800E+02 
  54885.9997     0.24416E+02 
  54926.3274     0.24038E+02 
  54966.6551     0.23666E+02 
  55006.9828     0.23299E+02 
  55047.3105     0.22937E+02 
  55087.6382     0.22580E+02 
  55127.9659     0.22229E+02 
  55168.2936     0.21883E+02 
  55208.6213     0.21542E+02 
  55248.9490     0.21206E+02 
  55289.2767     0.20874E+02 
  55329.6044     0.20548E+02 
  55369.9321     0.20226E+02 
  55410.2598     0.19908E+02 
  55450.5875     0.19595E+02 
  55490.9152     0.19287E+02 
  55531.2429     0.18983E+02 
  55571.5706     0.18683E+02 
  55611.8983     0.18387E+02 
  55652.2260     0.18095E+02 
  55692.5537     0.17808E+02 
  55732.8814     0.17524E+02 
  55773.2091     0.17244E+02 
  55813.5368     0.16969E+02 
  55853.8645     0.16696E+02 
  55894.1922     0.16428E+02 
  55934.5199     0.16163E+02 
  55974.8476     0.15902E+02 
  56015.1753     0.15645E+02 
  56055.5030     0.15390E+02 
  56095.8307     0.15140E+02 
  56136.1584     0.14892E+02 
  56176.4861     0.14648E+02 
  56216.8138     0.14408E+02 
  56257.1415     0.14170E+02 
  56297.4692     0.13936E+02 
  56337.7969     0.13704E+02 
  56378.1246     0.13476E+02 
  56418.4523     0.13251E+02 
  56458.7800     0.13028E+02 
  56499.1077     0.12809E+02 
  56539.4354     0.12593E+02 
  56579.7631     0.12379E+02 
  56620.0908     0.12168E+02 
  56660.4185     0.11960E+02 
  56700.7462     0.11754E+02 
  56741.0739     0.11552E+02 
  56781.4016     0.11352E+02 
  56821.7293     0.11154E+02 
  56862.0570     0.10959E+02 
  56902.3847     0.10766E+02 
  56942.7124     0.10577E+02 
  56983.0401     0.10389E+02 
  57023.3678     0.10204E+02 
  57063.6955     0.10021E+02 
  57104.0232     0.98406E+01 
  57144.3509     0.96625E+01 
  57184.6786     0.94867E+01 
  57225.0063     0.93131E+01 
  57265.3340     0.91418E+01 
  57305.6617     0.89726E+01 
  57345.9894     0.88057E+01 
  57386.3171     0.86408E+01 
  57426.6448     0.84780E+01 
  57466.9725     0.83174E+01 
  57507.3002     0.81587E+01 
  57547.6279     0.80022E+01 
  57587.9556     0.78476E+01 
  57628.2833     0.76950E+01 
  57668.6110     0.75444E+01 
  57708.9387     0.73957E+01 
  57749.2664     0.72489E+01 
  57789.5941     0.71040E+01 
  57829.9218     0.69610E+01 
  57870.2495     0.68198E+01 
  57910.5772     0.66804E+01 
  57950.9049     0.65429E+01 
  57991.2326     0.64071E+01 
  58031.5603     0.62731E+01 
  58071.8880     0.61408E+01 
  58112.2157     0.60103E+01 
  58152.5434     0.58814E+01 
  58192.8711     0.57543E+01 
  58233.1988     0.56289E+01 
  58273.5265     0.55050E+01 
  58313.8542     0.53829E+01 
  58354.1819     0.52624E+01 
  58394.5096     0.51435E+01 
  58434.8373     0.50261E+01 
  58475.1650     0.49104E+01 
  58515.4927     0.47962E+01 
  58555.8204     0.46836E+01 
  58596.1481     0.45725E+01 
  58636.4758     0.44629E+01 
  58676.8035     0.43549E+01 
  58717.1312     0.42484E+01 
  58757.4589     0.41433E+01 
  58797.7866     0.40397E+01 
  58838.1143     0.39376E+01 
  58878.4420     0.38370E+01 
  58918.7697     0.37378E+01 
  58959.0974     0.36400E+01 
  58999.4251     0.35436E+01 
  59039.7528     0.34487E+01 
  59080.0805     0.33551E+01 
  59120.4082     0.32630E+01 
  59160.7359     0.31722E+01 
  59201.0636     0.30828E+01 
  59241.3913     0.29948E+01 
  59281.7190     0.29082E+01 
  59322.0467     0.28229E+01 
  59362.3744     0.27389E+01 
  59402.7021     0.26563E+01 
  59443.0298     0.25750E+01 
  59483.3575     0.24951E+01 
  59523.6852     0.24164E+01 
  59564.0129     0.23391E+01 
  59604.3406     0.22631E+01 
  59644.6683     0.21884E+01 
  59684.9960     0.21150E+01 
  59725.3237     0.20429E+01 
  59765.6514     0.19720E+01 
  59805.9791     0.19025E+01 
  59846.3068     0.18342E+01 
  59886.6345     0.17672E+01 
  59926.9622     0.17015E+01 
  59967.2899     0.16371E+01 
  60007.6176     0.15739E+01 
  60047.9453     0.15120E+01 
  60088.2730     0.14514E+01 
  60128.6007     0.13920E+01 
  60168.9284     0.13339E+01 
  60209.2561     0.12770E+01 
  60249.5838     0.12214E+01 
  60289.9115     0.11671E+01 
  60330.2392     0.11140E+01 
  60370.5669     0.10622E+01 
  60410.8946     0.10116E+01 
  60451.2223     0.96228E+00 
  60491.5500     0.91422E+00 
  60531.8777     0.86742E+00 
  60572.2054     0.82187E+00 
  60612.5331     0.77758E+00 
  60652.8608     0.73456E+00 
  60693.1885     0.69279E+00 
  60733.5162     0.65229E+00 
  60773.8439     0.61306E+00 
  60814.1716     0.57510E+00 
  60854.4993     0.53841E+00 
  60894.8270     0.50300E+00 
  60935.1547     0.46886E+00 
  60975.4824     0.43601E+00 
  61015.8101     0.40445E+00 
  61056.1378     0.37417E+00 
  61096.4655     0.34519E+00 
  61136.7932     0.31752E+00 
  61177.1209     0.29114E+00 
  61217.4486     0.26608E+00 
  61257.7763     0.24233E+00 
  61298.1040     0.21991E+00 
  61338.4317     0.19882E+00 
  61378.7594     0.17906E+00 
  61419.0871     0.16064E+00 
  61459.4148     0.14357E+00 
  61499.7425     0.12785E+00 
  61540.0702     0.11351E+00 
  61580.3979     0.10053E+00 
  61620.7256     0.88931E-01 
  61661.0533     0.78722E-01 
  61701.3810     0.69912E-01 
  61741.7087     0.62509E-01 
  61782.0364     0.56522E-01 
  61822.3641     0.51961E-01 
  61862.6918     0.48837E-01 
  61903.0195     0.47160E-01 
  61943.3472     0.46942E-01 
  61983.6749     0.48192E-01 
  62024.0026     0.50922E-01 
  62064.3303     0.55145E-01 
  62104.6580     0.60873E-01 
  62144.9857     0.68118E-01 
  62185.3134     0.76894E-01 
  62225.6411     0.87212E-01 
  62265.9688     0.99088E-01 
  62306.2965     0.11253E+00 
  62346.6242     0.12757E+00 
  62386.9519     0.14420E+00 
  62427.2796     0.16244E+00 
  62467.6073     0.18232E+00 
  62507.9350     0.20385E+00 
  62548.2627     0.22703E+00 
  62588.5904     0.25190E+00 
  62628.9181     0.27846E+00 
  62669.2458     0.30674E+00 
  62709.5735     0.33674E+00 
  62749.9012     0.36850E+00 
  62790.2289     0.40203E+00 
  62830.5566     0.43735E+00 
  62870.8843     0.47447E+00 
  62911.2120     0.51342E+00 
  62951.5397     0.55422E+00 
  62991.8674     0.59689E+00 
  63032.1951     0.64145E+00 
  63072.5228     0.68793E+00 
  63112.8505     0.73634E+00 
  63153.1782     0.78670E+00 
  63193.5059     0.83905E+00 
  63233.8336     0.89341E+00 
  63274.1613     0.94979E+00 
  63314.4890     0.10082E+01 
  63354.8167     0.10688E+01 
  63395.1444     0.11314E+01 
  63435.4721     0.11961E+01 
  63475.7998     0.12631E+01 
  63516.1275     0.13322E+01 
  63556.4552     0.14035E+01 
  63596.7829     0.14771E+01 
  63637.1106     0.15529E+01 
  63677.4383     0.16311E+01 
  63717.7660     0.17116E+01 
  63758.0937     0.17944E+01 
  63798.4214     0.18797E+01 
  63838.7491     0.19674E+01 
  63879.0768     0.20575E+01 
  63919.4045     0.21502E+01 
  63959.7322     0.22454E+01 
  64000.0599     0.23432E+01 
  64040.3876     0.24435E+01 
  64080.7153     0.25465E+01 
  64121.0430     0.26522E+01 
  64161.3707     0.27606E+01 
  64201.6984     0.28718E+01 
  64242.0261     0.29857E+01 
  64282.3538     0.31026E+01 
  64322.6815     0.32222E+01 
  64363.0092     0.33449E+01 
  64403.3369     0.34704E+01 
  64443.6646     0.35990E+01 
  64483.9923     0.37307E+01 
  64524.3200     0.38654E+01 
  64564.6477     0.40033E+01 
  64604.9754     0.41444E+01 
  64645.3031     0.42887E+01 
  64685.6308     0.44363E+01 
  64725.9585     0.45873E+01 
  64766.2862     0.47417E+01 
  64806.6139     0.48995E+01 
  64846.9416     0.50608E+01 
  64887.2693     0.52257E+01 
  64927.5970     0.53941E+01 
  64967.9247     0.55663E+01 
  65008.2524     0.57422E+01 
  65048.5801     0.59219E+01 
  65088.9078     0.61054E+01 
  65129.2355     0.62929E+01 
  65169.5632     0.64842E+01 
  65209.8909     0.66797E+01 
  65250.2186     0.68793E+01 
  65290.5463     0.70829E+01 
  65330.8740     0.72909E+01 
  65371.2017     0.75031E+01 
  65411.5294     0.77198E+01 
  65451.8571     0.79408E+01 
  65492.1848     0.81665E+01 
  65532.5125     0.83967E+01 
  65572.8402     0.86316E+01 
  65613.1679     0.88712E+01 
  65653.4956     0.91157E+01 
  65693.8233     0.93651E+01 
  65734.1510     0.96195E+01 
  65774.4787     0.98789E+01 
  65814.8064     0.10144E+02 
  65855.1341     0.10413E+02 
  65895.4618     0.10689E+02 
  65935.7895     0.10969E+02 
  65976.1172     0.11256E+02 
  66016.4449     0.11547E+02 
  66056.7726     0.11845E+02 
  66097.1003     0.12148E+02 
  66137.4280     0.12458E+02 
  66177.7557     0.12773E+02 
  66218.0834     0.13094E+02 
  66258.4111     0.13422E+02 
  66298.7388     0.13756E+02 
  66339.0665     0.14097E+02 
  66379.3942     0.14444E+02 
  66419.7219     0.14798E+02 
  66460.0496     0.15158E+02 
  66500.3773     0.15526E+02 
  66540.7050     0.15900E+02 
  66581.0327     0.16282E+02 
  66621.3604     0.16671E+02 
  66661.6881     0.17068E+02 
  66702.0158     0.17472E+02 
  66742.3435     0.17884E+02 
  66782.6712     0.18303E+02 
  66822.9989     0.18731E+02 
  66863.3266     0.19167E+02 
  66903.6543     0.19611E+02 
  66943.9820     0.20064E+02 
  66984.3097     0.20525E+02 
  67024.6374     0.20995E+02 
  67064.9651     0.21474E+02 
  67105.2928     0.21962E+02 
  67145.6205     0.22460E+02 
  67185.9482     0.22966E+02 
  67226.2759     0.23483E+02 
  67266.6036     0.24009E+02 
  67306.9313     0.24545E+02 
  67347.2590     0.25092E+02 
  67387.5867     0.25648E+02 
  67427.9144     0.26216E+02 
  67468.2421     0.26794E+02 
  67508.5698     0.27383E+02 
  67548.8975     0.27983E+02 
  67589.2252     0.28595E+02 
  67629.5529     0.29218E+02 
  67669.8806     0.29853E+02 
  67710.2083     0.30500E+02 
  67750.5360     0.31160E+02 
  67790.8637     0.31832E+02 
  67831.1914     0.32516E+02 
  67871.5191     0.33214E+02 
  67911.8468     0.33925E+02 
  67952.1745     0.34650E+02 
  67992.5022     0.35389E+02 
  68032.8299     0.36141E+02 
  68073.1576     0.36908E+02 
  68113.4853     0.37690E+02 
  68153.8130     0.38487E+02 
  68194.1407     0.39299E+02 
  68234.4684     0.40126E+02 
  68274.7961     0.40969E+02 
  68315.1238     0.41829E+02 
  68355.4515     0.42705E+02 
  68395.7792     0.43598E+02 
  68436.1069     0.44508E+02 
  68476.4346     0.45436E+02 
  68516.7623     0.46381E+02 
  68557.0900     0.47345E+02 
  68597.4177     0.48328E+02 
  68637.7454     0.49329E+02 
  68678.0731     0.50351E+02 
  68718.4008     0.51391E+02 
  68758.7285     0.52453E+02 
  68799.0562     0.53534E+02 
  68839.3839     0.54637E+02 
  68879.7116     0.55762E+02 
  68920.0393     0.56908E+02 
  68960.3670     0.58077E+02 
  69000.6947     0.59269E+02 
  69041.0224     0.60484E+02 
  69081.3501     0.61724E+02 
  69121.6778     0.62987E+02 
  69162.0055     0.64276E+02 
  69202.3332     0.65590E+02 
  69242.6609     0.66930E+02 
  69282.9886     0.68297E+02 
  69323.3163     0.69691E+02 
  69363.6440     0.71112E+02 
  69403.9717     0.72562E+02 
  69444.2994     0.74042E+02 
  69484.6271     0.75550E+02 
  69524.9548     0.77089E+02 
  69565.2825     0.78659E+02 
  69605.6102     0.80261E+02 
  69645.9379     0.81895E+02 
  69686.2656     0.83561E+02 
  69726.5933     0.85262E+02 
  69766.9210     0.86998E+02 
  69807.2487     0.88768E+02 
  69847.5764     0.90575E+02 
  69887.9041     0.92418E+02 
  69928.2318     0.94300E+02 
  69968.5595     0.96220E+02 
  70008.8872     0.98179E+02 
  70049.2149     0.10018E+03 
  70089.5426     0.10222E+03 
  70129.8703     0.10430E+03 
  70170.1980     0.10643E+03 
  70210.5257     0.10860E+03 
  70250.8534     0.11082E+03 
  70291.1811     0.11308E+03 
  70331.5088     0.11539E+03 
  70371.8365     0.11775E+03 
  70412.1642     0.12016E+03 
  70452.4919     0.12262E+03 
  70492.8196     0.12513E+03 
  70533.1473     0.12769E+03 
  70573.4750     0.13031E+03 
  70613.8027     0.13299E+03 
  70654.1304     0.13572E+03 
  70694.4581     0.13851E+03 
  70734.7858     0.14136E+03 
  70775.1135     0.14427E+03 
  70815.4412     0.14725E+03 
  70855.7689     0.15029E+03 
  70896.0966     0.15340E+03 
  70936.4243     0.15657E+03 
  70976.7520     0.15981E+03 
  71017.0797     0.16313E+03 
  71057.4074     0.16651E+03 
  71097.7351     0.16998E+03 
  71138.0628     0.17351E+03 
  71178.3905     0.17713E+03 
  71218.7182     0.18083E+03 
  71259.0459     0.18461E+03 
  71299.3736     0.18847E+03 
  71339.7013     0.19243E+03 
  71380.0290     0.19647E+03 
  71420.3567     0.20060E+03 
  71460.6844     0.20482E+03 
  71501.0121     0.20915E+03 
  71541.3398     0.21357E+03 
  71581.6675     0.21809E+03 
  71621.9952     0.22271E+03 
  71662.3229     0.22744E+03 
  71702.6506     0.23229E+03 
  71742.9783     0.23724E+03 
  71783.3060     0.24231E+03 
  71823.6337     0.24750E+03 
  71863.9614     0.25281E+03 
  71904.2891     0.25824E+03 
  71944.6168     0.26380E+03 
  71984.9445     0.26950E+03 
  72025.2722     0.27532E+03 
  72065.5999     0.28129E+03 
  72105.9276     0.28741E+03 
  72146.2553     0.29366E+03 
  72186.5830     0.30007E+03 
  72226.9107     0.30663E+03 
  72267.2384     0.31336E+03 
  72307.5661     0.32024E+03 
  72347.8938     0.32730E+03 
  72388.2215     0.33453E+03 
  72428.5492     0.34194E+03 
  72468.8769     0.34953E+03 
  72509.2046     0.35731E+03 
  72549.5323     0.36529E+03 
  72589.8600     0.37346E+03 
