  0.396440502690391        2.34458441037511       -1.91697845763439     
   1.18932150807117       -1.26046744520997       -2.45189895433289     
   1.98220251345196       -2.23386782270239       0.530956759635894     
   2.77508351883274      -0.101649725340120        1.76362396191033     
   3.56796452421352        1.16549130294061       0.511315502866196     
   4.36084552959430       0.653479754166113      -0.578852584959559     
   5.15372653497509      -0.120206054000862      -0.568141417041485     
   5.94660754035587      -0.352526696331834      -0.146862109244059     
   6.73948854573665      -0.223533506913915       0.118514713199828     
   7.53236955111743      -4.763737278357073E-002  0.165126223831537     
   8.32525055649822       5.295891370287885E-002  0.109426272755881     
   9.11813156187900       8.178300100763000E-002  3.924710882638804E-002
   9.91101256725978       7.094274472474782E-002 -1.292504347608740E-002
   10.7038935726406       4.376775383868958E-002 -4.315613181900214E-002
   11.4967745780213       1.161038210604717E-002 -5.513885866967908E-002
   12.2896555834021      -2.061712253039790E-002 -5.155470460357772E-002
   13.0825365887829      -4.887311676174774E-002 -3.227896875354265E-002
   13.8754175941637      -6.554941821317030E-002  3.671041046019438E-003
   14.6682985995445      -5.711192210896297E-002  5.222150210786208E-002
   15.4611796049253      -8.595171500036334E-003  9.430928592705470E-002
   16.2540606103060       7.716551529941901E-002  9.000117466170074E-002
   17.0469416156868       0.149479121953883      -4.239692491728175E-005
   17.8398226210676       0.112698592286461      -0.149101927024031     
   18.6327036264484      -7.434540215339198E-002 -0.215986519103875     
   19.4255846318292      -0.263374495387523      -5.722465195718210E-002
   20.2184656372100      -0.201528233351116       0.227760010391985     
   21.0113466425907       0.114220815619244       0.305553269247028     
   21.8042276479715       0.329334935344825       4.080731935580843E-002
   22.5971086533523       0.183777825198137      -0.262765708113689     
   23.3899896587331      -0.129944099927380      -0.265615784612003     
   24.1828706641139      -0.261385837277740      -2.076987192167717E-002
   24.9757516694946      -0.136621528721881       0.179682618261579     
   25.7686326748754       5.789907323453957E-002  0.181660702181041     
   26.5615136802562       0.150254362107450       5.432533342789064E-002
   27.3543946856370       0.116109092084272      -6.738180128504746E-002
   28.1472756910178       2.398856821923154E-002 -0.111644930764109     
   28.9401566963986      -5.494122392950822E-002 -8.254461941401983E-002
   29.7330377017793      -8.648411623794362E-002 -1.866296063882389E-002
   30.5259187071601      -6.999112921274332E-002  4.177188014945726E-002
   31.3187997125409      -2.256003423009294E-002  7.440989588630910E-002
   32.1116807179217       3.274720429235632E-002  6.955667770185436E-002
   32.9045617233025       7.274018253704750E-002  3.008776753782894E-002
   33.6974427286833       7.795818398543317E-002 -2.917789622883387E-002
   34.4903237340640       3.887405769952926E-002 -8.174000667974357E-002
   35.2832047394448      -3.436721207226843E-002 -9.457918552288300E-002
   36.0760857448256      -0.104537396881459      -4.449405881484100E-002
   36.8689667502064      -0.116616446193817       5.584940207251275E-002
   37.6618477555872      -3.587997438656854E-002  0.142793153347855     
   38.4547287609680       0.101935493518752       0.131743722846596     
   39.2476097663487       0.186128660287521      -2.820759016698607E-003
   40.0404907717295       0.117340385200222      -0.167590546066900     
   40.8333717771103      -7.464297146783075E-002 -0.207573906123233     
   41.6262527824911      -0.225108132947409      -6.101071987106121E-002
   42.4191337878719      -0.185960297629914       0.155142660374001     
   43.2120147932526       1.947713581217300E-002  0.246972241757112     
   44.0048957986334       0.214157466391608       0.130410890249594     
   44.7977768040142       0.233606748544738      -9.534003956185186E-002
   45.5906578093950       6.504496237645876E-002 -0.245177861086774     
   46.3835388147758      -0.156056375393130      -0.202762338741236     
   47.1764198201566      -0.259780702575831      -1.357125836002698E-003
   47.9693008255373      -0.164815916733404       0.208787889657053     
   48.7621818309181       6.581676316889508E-002  0.266794672513428     
   49.5550628362989       0.262118975256950       0.114703687333668     
   50.3479438416797       0.260915673266303      -0.147220593116056     
   51.1408248470605       3.717919923222431E-002 -0.312218613752359     
   51.9337058524412      -0.243990958103080      -0.221410230040015     
   52.7265868578220      -0.334208050458339       7.812167867457392E-002
   53.5194678632028      -0.125128006902321       0.331024896923312     
   54.3123488685836       0.211750189379456       0.290743241017359     
   55.1052298739644       0.358472970411481      -2.060409061344471E-002
   55.8981108793452       0.171701520170178      -0.306232012501739     
   56.6909918847259      -0.157928705518688      -0.296147342909449     
   57.4838728901067      -0.312344406844633      -2.726483791103045E-002
   58.2767538954875      -0.179503420891876       0.223271144671429     
   59.0696349008683       7.204935067365698E-002  0.246362884040437     
   59.8625159062491       0.212801285184553       7.745707774457500E-002
   60.6553969116299       0.167731169311615      -0.104960488335298     
   61.4482779170106       2.328247284073381E-002 -0.170843954692242     
   62.2411589223914      -9.818070477792386E-002 -0.114805875037179     
   63.0340399277722      -0.134006522571853      -7.068515548060157E-003
   63.8269209331530      -9.092041559919599E-002  8.116306239787459E-002
   64.6198019385338      -9.597944938939958E-003  0.113615376597123     
   65.4126829439146       6.753300966315644E-002  8.751360485736870E-002
   66.2055639492953       0.109716408207153       1.988398223274537E-002
   66.9984449546761       9.944825007102033E-002 -6.203536366438676E-002
   67.7913259600569       3.335142770332377E-002 -0.123852085079990     
   68.5842069654377      -7.104218079981303E-002 -0.127069551030563     
   69.3770879708185      -0.164754248844206      -4.324459941511195E-002
   70.1699689761992      -0.169775556890449       0.112703669761516     
   70.9628499815800      -2.437302036705757E-002  0.245656433797589     
   71.7557309869608       0.221570442291816       0.201702143646492     
   72.5486119923416       0.350305441744693      -8.483487126352265E-002
   73.3414929977224       0.131844298090526      -0.404275359612702     
   74.1343740031032      -0.328313366275348      -0.360216983879539     
   74.9272550084840      -0.521478707443600       0.133976912441786     
   75.7201360138647      -0.122440069378470       0.556532746899748     
   76.5130170192455       0.449283273418752       0.359951644237850     
   77.3058980246263       0.503000491018093      -0.233424329694250     
   78.0987790300071       2.012807900505087E-002 -0.509621030935638     
   78.8916600353879      -0.386402820570802      -0.230124326178480     
   79.6845410407687      -0.335344663695957       0.184435068472055     
   80.4774220461494      -2.181078932034478E-002  0.316286749171322     
   81.2703030515302       0.199748633424172       0.163814748985810     
   82.0631840569110       0.204556392366032      -4.503248411808726E-002
   82.8560650622918       8.195000085672889E-002 -0.150121707802996     
   83.6489460676726      -4.322941561477336E-002 -0.135595279391791     
   84.4418270730533      -0.107400508378001      -5.784903150159366E-002
   85.2347080784341      -0.105511839804550       2.607735342600961E-002
   86.0275890838149      -5.832325746099308E-002  8.285887181376166E-002
   86.8204700891957       9.173841176020096E-003  9.880288811637018E-002
   87.6133510945765       7.339969178794001E-002  7.103022866506535E-002
   88.4062320999573       0.110132231303126       4.862600801450068E-003
   89.1991131053380       9.426742624740420E-002 -8.065126125047493E-002
   89.9919941107188       1.078341684145211E-002 -0.143980505548744     
   90.7848751160996      -0.118138216814479      -0.124998172398697     
   91.5777561214804      -0.206799084298687       1.371796942706324E-002
   92.3706371268612      -0.135835343302676       0.209319656640405     
   93.1635181322419       0.115602431007766       0.273070827808585     
   93.9563991376227       0.339944869618105       5.205382185343585E-002
   94.7492801430035       0.239248400665450      -0.302280179826210     
   95.5421611483843      -0.164850005804245      -0.380361473143361     
   96.3350421537651      -0.424529498259227      -2.938583537270207E-002
   97.1279231591459      -0.215668173358562       0.355892608407775     
   97.9208041645266       0.199709646696857       0.332651330175906     
   98.7136851699074       0.345991227386495      -1.190759049900617E-002
   99.5065661752882       0.143409711007557      -0.260646244328068     
   100.299447180669      -0.117077214692979      -0.219002013096879     
   101.092328186050      -0.201713027346205      -2.665462298138772E-002
   101.885209191431      -0.119031817862322       0.115028324052705     
   102.678090196811       6.484806214970260E-003  0.135183476769084     
   103.470971202192       8.466729691942242E-002  7.413088225959297E-002
   104.263852207573       9.611767597867622E-002 -4.158147319003304E-003
   105.056733212954       6.114772152213929E-002 -5.955596085231782E-002
   105.849614218334       7.347942160022349E-003 -7.881084372619078E-002
   106.642495223715      -4.355865687369635E-002 -6.355699341707340E-002
   107.435376229096      -7.586619787938596E-002 -2.146419112841121E-002
   108.228257234477      -7.690591664094032E-002  3.538775160841144E-002
   109.021138239858      -3.770155410375557E-002  8.711270376123065E-002
   109.814019245238       3.849904856888228E-002  0.103367234238011     
   110.606900250619       0.120763708052396       5.218357975799768E-002
   111.399781256000       0.143746268273661      -6.849047804450789E-002
   112.192662261381       4.326334595466512E-002 -0.188337267535066     
   112.985543266762      -0.153383156461824      -0.174541176794450     
   113.778424272142      -0.271133675569482       3.792073030995177E-002
   114.571305277523      -0.124224181885437       0.287396706343625     
   115.364186282904       0.206575427897120       0.276348232056989     
   116.157067288285       0.361239066145309      -4.966943436774464E-002
   116.949948293665       0.131361782181003      -0.344691653054471     
   117.742829299046      -0.230149949608349      -0.273581274689246     
   118.535710304427      -0.328063089670598       5.806829414857604E-002
   119.328591309808      -0.109978721367639       0.279436245320178     
   120.121472315189       0.151723452299979       0.215910196060353     
   120.914353320569       0.228189585849392       2.033649171296281E-003
   121.707234325950       0.121996288312618      -0.153644124034356     
   122.500115331331      -3.314361073557855E-002 -0.166182410955106     
   123.292996336712      -0.127100289453795      -7.689441078335615E-002
   124.085877342092      -0.129155193478801       3.335350134411474E-002
   124.878758347473      -6.432628812924944E-002  0.105594332652557     
   125.671639352854       2.443575960967763E-002  0.116447883169174     
   126.464520358235       9.728973048881216E-002  6.898134398027642E-002
   127.257401363616       0.123472376883804      -1.669353808487829E-002
   128.050282368996       8.413844405654392E-002 -0.106054796164683     
   128.843163374377      -1.814388562112788E-002 -0.151152096413989     
   129.636044379758      -0.142285989390896      -0.103420249624683     
   130.428925385139      -0.201308462031668       4.779333760125289E-002
   131.221806390520      -0.103034355291857       0.222447095017902     
   132.014687395900       0.142035361349684       0.252084069486001     
   132.807568401281       0.335661818632272       2.360372395286975E-002
   133.600449406662       0.221197113183891      -0.311158581089557     
   134.393330412043      -0.175891381123788      -0.380427436820016     
   135.186211417423      -0.441583113560040      -3.000573107525569E-002
   135.979092422804      -0.238155817786736       0.379579189923881     
   136.771973428185       0.214361775334976       0.378186002050331     
   137.564854433566       0.404946192803962      -3.313875958138923E-003
   138.357735438947       0.181246625676902      -0.315569370751684     
   139.150616444327      -0.149476463419648      -0.280202104090364     
   139.943497449708      -0.269850954170725      -2.846340084422339E-002
   140.736378455089      -0.154424681201950       0.169234271160087     
   141.529259460470       2.993081626787758E-002  0.190665146580124     
   142.322140465850       0.138806392338590       8.695381151892043E-002
   143.115021471231       0.136598411738470      -3.618604952743490E-002
   143.907902476612       6.262455949263335E-002 -0.108105651733146     
   144.700783481993      -2.671632984875019E-002 -0.110770226100465     
   145.493664487374      -8.955455634684965E-002 -5.988159582570470E-002
   146.286545492754      -0.104732441474247       1.555123254108612E-002
   147.079426498135      -6.849031821708018E-002  8.381580188991956E-002
   147.872307503516       7.344842806022565E-003  0.114660907126058     
   148.665188508897       9.328831670374789E-002  8.489311761568318E-002
   149.458069514277       0.142115320918839      -8.104133236705252E-003
   150.250950519658       0.103836811371279      -0.126781406763493     
   151.043831525039      -3.359727108020837E-002 -0.187790424297883     
   151.836712530420      -0.195892397185852      -0.105475769993090     
   152.629593535801      -0.232951667531243       0.109924569617766     
   153.422474541181      -4.794510761063550E-002  0.289709405913700     
   154.215355546562       0.240990360210658       0.221683652795834     
   155.008236551943       0.343038511494507      -9.323507484971739E-002
   155.801117557324       0.105878238581261      -0.359561369349940     
   156.593998562705      -0.257272504731184      -0.284836880470027     
   157.386879568085      -0.376366170209727       6.819435793465359E-002
   158.179760573466      -0.140854326095617       0.344718237345498     
   158.972641578847       0.200805472959985       0.294012430678798     
   159.765522584228       0.336330633403496       1.322447236883607E-003
   160.558403589608       0.185498736245578      -0.255679242079046     
   161.351284594989      -8.755848105858348E-002 -0.283540214121760     
   162.144165600370      -0.262200789786237      -9.925384490728528E-002
   162.937046605751      -0.230406014358673       0.135994677802952     
   163.729927611132      -3.929869292941564E-002  0.255730160437474     
   164.522808616512       0.168944085082413       0.189701041634353     
   165.315689621893       0.253151955278207      -9.374895414962635E-003
   166.108570627274       0.154789215066188      -0.204348388417040     
   166.901451632655      -6.427719630247769E-002 -0.254645356848751     
   167.694332638036      -0.248478181828111      -0.109184654805716     
   168.487213643416      -0.245416255915503       0.138065589675274     
   169.280094648797      -3.300055876598697E-002  0.289797392502586     
   170.072975654178       0.225235092779352       0.197859469733766     
   170.865856659559       0.293781469424050      -7.789832847272971E-002
   171.658737664939       9.470060106935811E-002 -0.286988604757376     
   172.451618670320      -0.184856328544915      -0.227824037415498     
   173.244499675701      -0.275517372343475       3.097805650763998E-002
   174.037380681082      -0.114187025274935       0.227772958566730     
   174.830261686463       0.112180756757753       0.198484297359366     
   175.623142691843       0.198368930151823       1.987699417487029E-002
   176.416023697224       0.115957850471845      -0.126143040253456     
   177.208904702605      -2.178328081738220E-002 -0.144206069969189     
   178.001785707986      -0.104803134288344      -6.633456627239116E-002
   178.794666713366      -0.102940332406158       2.687972251234321E-002
   179.587547718747      -4.697935731549059E-002  8.014875728778019E-002
   180.380428724128       1.860430721450234E-002  8.117568329196009E-002
   181.173309729509       6.312451064606885E-002  4.439600489135560E-002
   181.966190734890       7.388740821371940E-002 -7.794182120098812E-003
   182.759071740270       5.094575099130576E-002 -5.438259243276909E-002
   183.551952745651       2.741010806246367E-003 -7.784438383443799E-002
   184.344833751032      -5.433986402933027E-002 -6.495484719627460E-002
   185.137714756413      -9.469249004279862E-002 -1.133735239390276E-002
   185.930595761794      -8.688619306148232E-002  6.836162943936479E-002
   186.723476767174      -1.065220027905241E-002  0.130467798861896     
   187.516357772555       0.110582272384046       0.111272547849597     
   188.309238777936       0.187091395200546      -2.223499024123157E-002
   189.102119783317       0.108199295269984      -0.196644308113507     
   189.895000788697      -0.122716810521100      -0.232102935532748     
   190.687881794078      -0.298218192488102      -1.803028117397602E-002
   191.480762799459      -0.179775688719335       0.274448840496067     
   192.273643804840       0.162389948201912       0.305050583805961     
   193.066524810221       0.347858344477469       1.930008495850136E-003
   193.859405815601       0.161750383541946      -0.292606431748303     
   194.652286820982      -0.160688644900602      -0.262141919307473     
   195.445167826363      -0.271954753304570       1.771347448399338E-003
   196.238048831744      -0.126602674473292       0.195839281985872     
   197.030929837124       7.123265727246686E-002  0.182427520361962     
   197.823810842505       0.155674176654087       4.833716713286493E-002
   198.616691847886       0.116355470346543      -7.077435110180429E-002
   199.409572853267       2.577159713113724E-002 -0.112766832835278     
   200.202453858648      -5.129135464380239E-002 -8.708333009633697E-002
   200.995334864028      -8.720858081567978E-002 -2.853348834383663E-002
   201.788215869409      -8.096659933738237E-002  3.249934792593225E-002
   202.581096874790      -4.214502758685158E-002  7.647143250282702E-002
   203.373977880171       1.666839349167074E-002  9.064493556087516E-002
   204.166858885551       7.901721551391389E-002  6.527310329131961E-002
   204.959739890932       0.119520762553769      -3.965385879215431E-003
   205.752620896313       0.102072957871109      -0.103571842379718     
   206.545501901694      -4.804617261536304E-003 -0.182546182550863     
   207.338382907075      -0.180877456557984      -0.148828605539564     
   208.131263912455      -0.295668359935727       6.706204990072698E-002
   208.924144917836      -0.144829132845582       0.363076152861659     
   209.717025923217       0.297346301258726       0.396517797552112     
   210.509906928598       0.604017023640768      -8.856599785899374E-002
   211.302787933979       0.220331698380636      -0.688199749414424     
   212.095668939359      -0.605567616522317      -0.545023578832399     
   212.888549944740      -0.788216856409123       0.366853458494702     
   213.681430950121       3.567624316373046E-002  0.874415505756305     
   214.474311955502       0.777508403404328       0.292730042570886     
   215.267192960882       0.524826976245206      -0.530275717245452     
   216.060073966263      -0.212062033395648      -0.601433841501755     
   216.852954971644      -0.517241783493186      -8.044708391185290E-002
   217.645835977025      -0.267816517959799       0.319864709378243     
   218.438716982406       8.926744106217249E-002  0.314440128787968     
   219.231597987786       0.237237365157298       9.380505174612386E-002
   220.024478993167       0.177606217300492      -9.395188353619521E-002
   220.817359998548       4.328992507558541E-002 -0.155726852749420     
   221.610241003929      -6.422660782021586E-002 -0.117828737871757     
   222.403122009309      -0.109498560213008      -3.813976953532629E-002
   223.196003014690      -9.744022936202859E-002  3.874812050020796E-002
   223.988884020071      -4.685424927208879E-002  8.784088753661108E-002
   224.781765025452       2.094103224505119E-002  9.700697510597604E-002
   225.574646030833       8.285117642162620E-002  6.221555936963225E-002
   226.367527036213       0.112257626148318      -1.030151616615445E-002
   227.160408041594       8.309059601877819E-002 -9.594295823988759E-002
   227.953289046975      -1.290967927798063E-002 -0.146032120959349     
   228.746170052356      -0.137962694786096      -0.102772766946511     
   229.539051057737      -0.196984687752285       4.909294519975341E-002
   230.331932063117      -9.302755500865570E-002  0.219574700919684     
   231.124813068498       0.147466152642311       0.233544902134823     
   231.917694073879       0.312819000013733       3.362642301335234E-003
   232.710575079260       0.182476722218132      -0.291839695722366     
   233.503456084640      -0.169621928681853      -0.324489984302468     
   234.296337090021      -0.375388182425553      -1.497792625831490E-002
   235.089218095402      -0.197980358227781       0.314618818228858     
   235.882099100783       0.163653135117097       0.315482220296762     
   236.674980106164       0.328859991539818       2.256748725299991E-002
   237.467861111544       0.177681479339539      -0.239533065922907     
   238.260742116925      -8.729470669761470E-002 -0.250204290377003     
   239.053623122306      -0.223152322889215      -6.683628735391406E-002
   239.846504127687      -0.165824074805480       0.119032793000043     
   240.639385133067      -1.147869866990929E-002  0.179222603915133     
   241.432266138448       0.113841354173827       0.111958368483516     
   242.225147143829       0.143978967939553      -8.394215878953608E-003
   243.018028149210       8.504342262536223E-002 -0.102093732526834     
   243.810909154591      -1.397945528784518E-002 -0.124385770098525     
   244.603790159971      -9.546374648087302E-002 -7.380389797737931E-002
   245.396671165352      -0.117764613663743       1.689955921518818E-002
   246.189552170733      -6.983289060934439E-002  9.726078600137066E-002
   246.982433176114       2.338359569707267E-002  0.120382902440502     
   247.775314181495       0.108398539927484       6.682419601046000E-002
   248.568195186875       0.128015500496965      -3.788189344909108E-002
   249.361076192256       5.851698887622755E-002 -0.127975604278812     
   250.153957197637      -6.309880944441665E-002 -0.134488204324417     
   250.946838203018      -0.151583253612862      -3.918271495461900E-002
   251.739719208398      -0.132280335054945       9.753811546742232E-002
   252.532600213779      -6.999387004888412E-003  0.171477480791825     
   253.325481219160       0.134753268382875       0.116647707859986     
   254.118362224541       0.181058509639161      -3.396801688016823E-002
   254.911243229922       8.891429850120258E-002 -0.167698893800431     
   255.704124235302      -7.752337978621984E-002 -0.179349547061428     
   256.497005240683      -0.194131058116066      -5.369931499392795E-002
   257.289886246064      -0.169502157792542       0.121319935505681     
   258.082767251445      -1.273914721756325E-002  0.216619570997304     
   258.875648256826       0.168571080089341       0.152859510473687     
   259.668529262206       0.237406709508061      -3.867328356204290E-002
   260.461410267587       0.123500934176464      -0.224448965743982     
   261.254291272968      -0.110607343560144      -0.251257047206076     
   262.047172278349      -0.287877198117034      -6.561731252523714E-002
   262.840053283729      -0.237876172731892       0.210505013816604     
   263.632934289110       4.077007562273123E-002  0.337927887279693     
   264.425815294491       0.323002854918661       0.162511640951383     
   265.218696299872       0.325824074551272      -0.193341057565941     
   266.011577305253       7.357491630302568E-003 -0.389573113854298     
   266.804458310633      -0.331226298202609      -0.208810523699040     
   267.597339316014      -0.341473572624427       0.173615905710348     
   268.390220321395      -2.480699477381407E-002  0.363168695577926     
   269.183101326776       0.274287624263269       0.193545382311007     
   269.975982332156       0.277626637491547      -0.115685379277976     
   270.768863337537       4.938960080103388E-002 -0.257893057949366     
   271.561744342918      -0.156006586907588      -0.161432912364846     
   272.354625348299      -0.187868609801186       2.271449680622772E-002
   273.147506353680      -8.505505169084600E-002  0.133826639846495     
   273.940387359060       3.657785689041362E-002  0.128186345006274     
   274.733268364441       0.100250611433589       5.325108795831237E-002
   275.526149369822       9.500415380355598E-002 -2.729354618781520E-002
   276.319030375203       4.671767676375572E-002 -7.549015121343432E-002
   277.111911380583      -1.311181820016990E-002 -8.178724030546965E-002
   277.904792385964      -6.103669445982227E-002 -5.281932647603746E-002
   278.697673391345      -8.239055329261276E-002 -1.587683217071652E-003
   279.490554396726      -6.850589170494596E-002  5.554062426023440E-002
   280.283435402107      -1.687519231903107E-002  9.729795159739860E-002
   281.076316407487       6.250274312366226E-002  9.674162158379943E-002
   281.869197412868       0.135778079810501       2.967964474466961E-002
   282.662078418249       0.140897935077178      -9.865493525056351E-002
   283.454959423630       1.822572878726325E-002 -0.215281162133558     
   284.247840429011      -0.203359667997995      -0.181051840804768     
   285.040721434391      -0.329295311341076       8.511396094828946E-002
   285.833602439772      -0.118001595981974       0.398972962587075     
   286.626483445153       0.349061128889245       0.347802233892526     
   287.419364450534       0.529649256509265      -0.179966769382584     
   288.212245455914       6.399704687868382E-002 -0.600434954402387     
   289.005126461295      -0.533042436607014      -0.309634869743158     
   289.798007466676      -0.481611491279200       0.347281406272177     
   290.590888472057       0.102714910491061       0.530235081663264     
   291.383769477438       0.449174232729893       0.123817207675801     
   292.176650482818       0.266884969854086      -0.276179465179654     
   292.969531488199      -7.686104770024595E-002 -0.295777575903159     
   293.762412493580      -0.223236742796698      -8.155010338287581E-002
   294.555293498961      -0.155592391150719       9.663998730510276E-002
   295.348174504342      -2.398793366738267E-002  0.139866231869735     
   296.141055509722       6.487886319634906E-002  9.141813563041171E-002
   296.933936515103       8.929296764328151E-002  1.983565512099002E-002
   297.726817520484       6.939137337330921E-002 -3.553025558240598E-002
   298.519698525865       2.968150681583490E-002 -6.341004593728292E-002
   299.312579531245      -1.342091952485888E-002 -6.528508695059444E-002
   300.105460536626      -5.012746588675716E-002 -4.513024013759513E-002
   300.898341542007      -7.225205522255213E-002 -6.477134178181014E-003
   301.691222547388      -6.928607672400083E-002  4.502302144782308E-002
   302.484103552769      -2.873917359757291E-002  9.478977281218745E-002
   303.276984558149       5.398079987494127E-002  0.111450697865055     
   304.069865563530       0.151533292401458       5.031740577580085E-002
   304.862746568911       0.179982964513031      -0.107403063132197     
   305.655627574292       3.087669864770293E-002 -0.274484853784015     
   306.448508579672      -0.275426425106312      -0.232239311991318     
   307.241389585053      -0.432521940063318       0.152674280731008     
   308.034270590434      -7.917459127965346E-002  0.557289069864436     
   308.827151595815       0.550720193825046       0.361625291749512     
   309.620032601196       0.611070420884696      -0.398839383283985     
   310.412913606576      -0.137394303234410      -0.748677430139990     
   311.205794611957      -0.729668004631962      -0.159230088848664     
   311.998675617338      -0.404085460309646       0.560234607911051     
   312.791556622719       0.295252211205226       0.528708772003056     
   313.584437628099       0.507066447757185      -1.773868271062165E-002
   314.377318633480       0.191657017547075      -0.363108380812064     
   315.170199638861      -0.159256155742639      -0.283046879149529     
   315.963080644242      -0.252638142257592      -2.913139847630015E-002
   316.755961649623      -0.142708733076136       0.139598210872779     
   317.548842655003       6.614273420987971E-003  0.158834541380293     
   318.341723660384       9.612600851837769E-002  8.718835693976947E-002
   319.134604665765       0.109543495986903      -1.960298229428802E-003
   319.927485671146       7.086944552890456E-002 -6.518878567457376E-002
   320.720366676527       1.059480522014131E-002 -8.785288311789705E-002
   321.513247681907      -4.662240722333739E-002 -7.131024735882720E-002
   322.306128687288      -8.231890986876975E-002 -2.457773859533120E-002
   323.099009692669      -8.246212248215723E-002  3.723539794047501E-002
   323.891890698050      -3.953446654723270E-002  9.081665293246795E-002
   324.684771703430       3.891186106435782E-002  0.104968249840987     
   325.477652708811       0.118569509946581       5.221969768080599E-002
   326.270533714192       0.138564698567468      -6.273947045431852E-002
   327.063414719573       4.702033497079108E-002 -0.173111004585184     
   327.856295724954      -0.128104079968036      -0.166964179483048     
   328.649176730334      -0.243213838909365       9.518218565142372E-003
   329.442057735715      -0.143011304923529       0.235377762914909     
   330.234938741096       0.135340493783139       0.271233721298937     
   331.027819746477       0.322162032078403       2.719690396544217E-002
   331.820700751857       0.195225058802287      -0.270660418693475     
   332.613581757238      -0.130984177728390      -0.306877177577902     
   333.406462762619      -0.320507357452791      -4.788790096321243E-002
   334.199343768000      -0.201422638451575       0.231829648833069     
   334.992224773381       7.582115246153090E-002  0.275304462319466     
   335.785105778761       0.247057903131979       8.749711254583822E-002
   336.577986784142       0.197472483561848      -0.134489336059591     
   337.370867789523       1.251402146677058E-002 -0.217193270015175     
   338.163748794904      -0.147640319723016      -0.133251322065063     
   338.956629800285      -0.181466717814177       2.581919298496575E-002
   339.749510805665      -9.209216578030843E-002  0.143914244172851     
   340.542391811046       4.449890601446490E-002  0.155192616203640     
   341.335272816427       0.139363540824170       6.749808358400604E-002
   342.128153821808       0.139770846384553      -5.667741691750686E-002
   342.921034827188       5.113429609850093E-002 -0.140092403247792     
   343.713915832569      -7.012715140838206E-002 -0.132067656960801     
   344.506796837950      -0.147448754728496      -3.596384577486886E-002
   345.299677843331      -0.127367005213196       8.933727712830884E-002
   346.092558848712      -1.592205989485957E-002  0.159829635600414     
   346.885439854092       0.115937480597371       0.119555824515565     
   347.678320859473       0.172398177514813      -1.342960722847728E-002
   348.471201864854       0.102240008520112      -0.147363826986642     
   349.264082870235      -5.234518243391930E-002 -0.177957236085672     
   350.056963875615      -0.176874829378059      -7.235824140386310E-002
   350.849844880996      -0.171223418687371       9.563751634355953E-002
   351.642725886377      -3.288868133100535E-002  0.197989764848178     
   352.435606891758       0.136787173080438       0.152946399425750     
   353.228487897139       0.209827155391044      -1.049764669948206E-002
   354.021368902519       0.127686673916819      -0.174212277915157     
   354.814249907900      -5.629049421861731E-002 -0.216323593097273     
   355.607130913281      -0.212232429319690      -9.679697490679622E-002
   356.400011918662      -0.219598011297959       0.110145842556888     
   357.192892924042      -5.313927037159328E-002  0.255574746565900     
   357.985773929423       0.181570839969054       0.212340736391585     
   358.778654934804       0.299756571476456      -1.909915930100851E-002
   359.571535940185       0.172624394488307      -0.273202041358520     
   360.364416945566      -0.134229874338929      -0.319413267753447     
   361.157297950946      -0.361513014601583      -7.107758234991091E-002
   361.950178956327      -0.269320533898836       0.277709218728004     
   362.743059961708       9.426707309993604E-002  0.388154468088525     
   363.535940967089       0.384374493780447       0.124978149037464     
   364.328821972470       0.303347953328966      -0.260392369583724     
   365.121702977850      -6.258586222366246E-002 -0.380814223727420     
   365.914583983231      -0.336375936993559      -0.137552953321989     
   366.707464988612      -0.271563629406487       0.194514037726104     
   367.500345993993       1.357569507582473E-002  0.299930896969931     
   368.293226999373       0.225436904586564       0.138643859146366     
   369.086108004754       0.211775560783976      -8.905962351484825E-002
   369.878989010135       4.914814952719825E-002 -0.191194834805374     
   370.671870015516      -0.100704613600380      -0.135652143298261     
   371.464751020897      -0.144595926785686      -1.072076773417992E-002
   372.257632026277      -9.174061171948168E-002  8.591923273838105E-002
   373.050513031658      -2.301544420400460E-003  0.110833349888583     
   373.843394037039       6.836921231838629E-002  7.317443726556573E-002
   374.636275042420       9.298107749926041E-002  6.190402078245831E-003
   375.429156047801       7.006814156725755E-002 -5.599484621943663E-002
   376.222037053181       1.424355921296463E-002 -8.836145232533195E-002
   377.014918058562      -5.087493974100495E-002 -7.737501894542961E-002
   377.807799063943      -9.641801898773947E-002 -2.303432747380236E-002
   378.600680069324      -9.372037642607010E-002  5.631311759429792E-002
   379.393561074704      -2.778218113445131E-002  0.120334818130923     
   380.186442080085       8.098155834564788E-002  0.116401576195435     
   380.979323085466       0.163412385666689       1.536845169629961E-002
   381.772204090847       0.130898278311922      -0.137569563173389     
   382.565085096228      -3.825158425298268E-002 -0.214403190618951     
   383.357966101608      -0.223636372284530      -0.101942783151889     
   384.150847106989      -0.229358433210587       0.144762482332045     
   384.943728112370       1.862193559682285E-004  0.291318434456571     
   385.736609117751       0.258669785412271       0.159061931864412     
   386.529490123131       0.273524275753390      -0.139041343318467     
   387.322371128512       2.515031305829673E-002 -0.299700226064779     
   388.115252133893      -0.228245031565192      -0.173418880818768     
   388.908133139274      -0.251762807054463       8.810876591150078E-002
   389.701014144655      -6.532214146077361E-002  0.234704612016247     
   390.493895150035       0.135427267661636       0.173175844132591     
   391.286776155416       0.197434326818678       3.590878661444349E-004
   392.079657160797       0.114238823022790      -0.136294207929311     
   392.872538166178      -2.397996223546232E-002 -0.160127249742271     
   393.665419171558      -0.123763846610087      -8.490212515327414E-002
   394.458300176939      -0.139712725630879       2.824399342914953E-002
   395.251181182320      -7.683651764909710E-002  0.116273438239810     
   396.044062187701       2.768038993954781E-002  0.137960156624952     
   396.836943193082       0.122189557920463       8.139821479619914E-002
   397.629824198462       0.154641652292417      -3.284663271464944E-002
   398.422705203843       9.068203544706212E-002 -0.149692079378796     
   399.215586209224      -5.832805202544525E-002 -0.189270976362014     
   400.008467214605      -0.209769219812673      -8.778301203438868E-002
   400.801348219986      -0.228669529259055       0.129158094134960     
   401.594229225366      -3.335037053887127E-002  0.300480387675284     
   402.387110230747       0.262647084665125       0.221830875725107     
   403.179991236128       0.364938717318117      -0.116300530408700     
   403.972872241509       9.405846281671755E-002 -0.404419206997003     
   404.765753246890      -0.319086282211015      -0.296718805180272     
   405.558634252270      -0.420378341756819       0.134254699916375     
   406.351515257651      -8.743758781643203E-002  0.422006861402596     
   407.144396263032       0.303559420544499       0.270189925032943     
   407.937277268413       0.354352692711362      -0.110728392416433     
   408.730158273793       8.565438342989862E-002 -0.318955832847729     
   409.523039279174      -0.188382237020880      -0.217807256810186     
   410.315920284555      -0.247147362836015       2.074728802808143E-002
   411.108801289936      -0.116859561264433       0.177770583416560     
   411.901682295317       5.206594843561958E-002  0.175753639696289     
   412.694563300697       0.144246125334809       6.919462067484498E-002
   413.487444306078       0.133499186402433      -4.995418615757036E-002
   414.280325311459       5.464350229217828E-002 -0.118527982857267     
   415.073206316840      -4.016438315871364E-002 -0.116760562078359     
   415.866087322220      -0.107126958672842      -5.650598369036852E-002
   416.658968327601      -0.118934660641909       3.273406452886263E-002
   417.451849332982      -6.692451599732557E-002  0.111862313463283     
   418.244730338363       3.413554316176515E-002  0.138324131089456     
   419.037611343744       0.138898128295415       7.985104503705194E-002
   419.830492349124       0.174816881838827      -5.750988626356996E-002
   420.623373354505       7.869616274961566E-002 -0.199071388722757     
   421.416254359886      -0.128201470885118      -0.214302789549792     
   422.209135365267      -0.288445213261137      -2.238635393697243E-002
   423.002016370648      -0.201726872246408       0.260837338338102     
   423.794897376028       0.129904436306503       0.342873206532928     
   424.587778381409       0.389762539679672       6.481900701716167E-002
   425.380659386790       0.257265719425620      -0.320192726886618     
   426.173540392171      -0.155307916032649      -0.380484206294647     
   426.966421397551      -0.392808338658387      -4.838232695291339E-002
   427.759302402932      -0.221140662013765       0.293801559110637     
   428.552183408313       0.123546238551064       0.307126909740243     
   429.345064413694       0.285370695248990       5.417822376175992E-002
   430.137945419075       0.177621322885915      -0.176170692405550     
   430.930826424455      -3.070903036340636E-002 -0.210935393220025     
   431.723707429836      -0.156463805107849      -9.129846613420869E-002
   432.516588435217      -0.146229175119075       5.080384916452616E-002
   433.309469440598      -5.305220989089081E-002  0.123098754704674     
   434.102350445978       4.540118509551790E-002  0.109384600952205     
   434.895231451359       9.889044225375626E-002  4.190856412622401E-002
   435.688112456740       9.405592891977904E-002 -3.523350898080183E-002
   436.480993462121       4.338269487848764E-002 -8.692328061158466E-002
   437.273874467502      -2.733647035086961E-002 -9.339466673866076E-002
   438.066755472882      -8.694382493932323E-002 -5.117599717594742E-002
   438.859636478263      -0.104968841088184       2.527435489695971E-002
   439.652517483644      -6.155657087520108E-002  0.101545375664407     
   440.445398489025       3.578482033616349E-002  0.128510333504961     
   441.238279494405       0.136715717205797       6.632378560985856E-002
   442.031160499786       0.158326414789746      -7.239331188343746E-002
   442.824041505167       4.508257758003640E-002 -0.193786985946828     
   443.616922510548      -0.147611603511446      -0.169886220623872     
   444.409803515929      -0.248606054799708       2.869857062188211E-002
   445.202684521309      -0.121932022823333       0.243248290256016     
   445.995565526690       0.148390891089726       0.247096604047810     
   446.788446532071       0.296898687454334       5.116361280850440E-003
   447.581327537452       0.161786753399080      -0.249717285476964     
   448.374208542832      -0.121706583894254      -0.263748564612502     
   449.167089548213      -0.274279080814483      -3.937815237730852E-002
   449.959970553594      -0.173531552623455       0.192662539233055     
   450.752851558975       5.407459480826599E-002  0.232886964806768     
   451.545732564356       0.200842715253793       8.542347505229241E-002
   452.338613569736       0.172343994403576      -9.788724849037556E-002
   453.131494575117       2.819923959308335E-002 -0.177665089142471     
   453.924375580498      -0.107871899021624      -0.123384787822218     
   454.717256585879      -0.150491816803102       6.011612057044285E-004
   455.510137591260      -9.297021057975578E-002  0.104386548017923     
   456.303018596640       1.279623362117690E-002  0.131120819302499     
   457.095899602021       9.981076328111413E-002  7.737423013197117E-002
   457.888780607402       0.121986731657507      -1.814860428070131E-002
   458.681661612783       7.121717715974940E-002 -0.100013124466170     
   459.474542618163      -2.313670815554757E-002 -0.122394742036232     
   460.267423623544      -0.108054615962186      -6.975550035000011E-002
   461.060304628925      -0.130805871494142       3.281527215928925E-002
   461.853185634306      -6.805568589083490E-002  0.125993126967623     
   462.646066639687       5.214281940134654E-002  0.144370313158496     
   463.438947645067       0.154391221045937       5.985798141734502E-002
   464.231828650448       0.157640213100880      -8.540054491401688E-002
   465.024709655829       3.807438377412765E-002 -0.190666908986536     
   465.817590661210      -0.134196597325561      -0.162742511525053     
   466.610471666591      -0.228811574552664       3.086649877953138E-003
   467.403352671971      -0.151350599509675       0.196840215362642     
   468.196233677352       6.751790231849690E-002  0.261068197781483     
   468.989114682733       0.269929921148681       0.114768001293505     
   469.781995688114       0.277133999247840      -0.159372135051711     
   470.574876693494       4.012969245770323E-002 -0.346779274876592     
   471.367757698875      -0.281593903571772      -0.257490823129401     
   472.160638704256      -0.406912694436880       9.007707574928431E-002
   472.953519709637      -0.168228938146553       0.421417752817909     
   473.746400715018       0.280660865884115       0.402865499482535     
   474.539281720398       0.525836800768335      -2.154519363271618E-002
   475.332162725779       0.273180130407164      -0.485343220895379     
   476.125043731160      -0.286528704023563      -0.504411020894960     
   476.917924736541      -0.593043323851971      -9.137958045483847E-003
   477.710805741921      -0.305836616144276       0.509120686234875     
   478.503686747302       0.282490994240474       0.508281489224939     
   479.296567752683       0.556022207799144       9.014712425247762E-003
   480.089448758064       0.269019930363143      -0.444019018077085     
   480.882329763445      -0.221933794592616      -0.417981749919113     
   481.675210768825      -0.420778175587093      -2.692350544714012E-002
   482.468091774206      -0.218112834744488       0.296223283194420     
   483.260972779587       0.105689659712871       0.296976840361525     
   484.053853784968       0.256045096600947       7.362666541678786E-002
   484.846734790349       0.179424005192493      -0.132930254405695     
   485.639615795729       9.187440665667540E-003 -0.186597425106457     
   486.432496801110      -0.112781031924438      -0.109483314498233     
   487.225377806491      -0.133892510485326       6.073561899654016E-003
   488.018258811872      -7.871489572890650E-002  8.619422428353687E-002
   488.811139817252       2.077982150373775E-003  0.104534990715746     
   489.604020822633       6.681954783196194E-002  7.012727222955759E-002
   490.396901828014       9.288211980239022E-002  7.306413019976143E-003
   491.189782833395       7.411449553559095E-002 -5.649245341625514E-002
   491.982663838776       1.750637518522503E-002 -9.526307807332318E-002
   492.775544844156      -5.652651644251717E-002 -8.764934747459439E-002
   493.568425849537      -0.112998970820542      -2.514698249431078E-002
   494.361306854918      -0.109265153430550       7.328401515365866E-002
   495.154187860299      -2.045481713061547E-002  0.150518031560128     
   495.947068865680       0.120095210120078       0.129548241672950     
   496.739949871060       0.204132599025360      -1.998650453978222E-002
   497.532830876441       0.116201724228657      -0.205100382002578     
   498.325711881822      -0.121897581819735      -0.236424007705710     
   499.118592887203      -0.291731686773081      -2.168477121997131E-002
   499.911473892583      -0.176340722401875       0.256884105858774     
   500.704354897964       0.141168102435453       0.286971360097288     
   501.497235903345       0.314884011473645       1.517875647560435E-002
   502.290116908726       0.157326660129253      -0.253050083145140     
   503.082997914107      -0.128079411354474      -0.237924531486197     
   503.875878919487      -0.235482363643904      -1.165400490133811E-002
   504.668759924868      -0.116364907058944       0.161426817337049     
   505.461640930249       5.322704396705562E-002  0.154810144888708     
   506.254521935630       0.125378593539495       4.294586292278506E-002
   507.047402941010       9.213112933537439E-002 -5.394959900057368E-002
   507.840283946391       1.992669439329844E-002 -8.429264809947692E-002
   508.633164951772      -3.608292375576575E-002 -6.186770380258144E-002
   509.426045957153      -5.782012437573491E-002 -1.957638725626826E-002
   510.218926962534      -5.080199590556785E-002  1.875800208776556E-002
   511.011807967914      -2.690747611666915E-002  4.259886845240391E-002
   511.804688973295       3.706263968562981E-003  4.927253349059565E-002
   512.597569978676       3.337226273080364E-002  3.881636689958667E-002
   513.390450984057       5.467932612958736E-002  1.206317786516805E-002
   514.183331989437       5.816095705092762E-002 -2.781762503372437E-002
   514.976212994818       3.251029546179382E-002 -7.059588667479580E-002
   515.769094000199      -2.878398216558398E-002 -9.305349998695139E-002
   516.561975005580      -0.110777458832883      -5.965033003754915E-002
