  0.395228146413051        2.34416255788544       -1.91784046445777     
   1.18568443923915       -1.26377929148098       -2.45217857570013     
   1.97614073206525       -2.23662561791205       0.536368406978902     
   2.76659702489135      -9.589911448013473E-002   1.76958316628813     
   3.55705331771746        1.17395468970002       0.507494146574709     
   4.34750961054356       0.653183124917405      -0.587926968465586     
   5.13796590336966      -0.127561358339534      -0.571482649621130     
   5.92842219619576      -0.358083561377442      -0.142993217089252     
   6.71887848902186      -0.223574906420477       0.124017225357047     
   7.50933478184796      -4.423763644712816E-002  0.167987830821741     
   8.29979107467407       5.657682843363898E-002  0.109026877868417     
   9.09024736750017       8.378601004788022E-002  3.691480370379954E-002
   9.88070366032627       7.095238882668467E-002 -1.563627765534938E-002
   10.6711599531524       4.220046624672624E-002 -4.512644812431606E-002
   11.4616162459785       9.207788976120297E-003 -5.572253872367799E-002
   12.2520725388046      -2.295996364066994E-002 -5.050086304331716E-002
   13.0425288316307      -5.015239114124821E-002 -2.977223098660569E-002
   13.8329851244568      -6.480537622210060E-002  6.812127673454644E-003
   14.6234414172829      -5.393374300565557E-002  5.437213710219229E-002
   15.4138977101090      -4.014350306433101E-003  9.340680000416171E-002
   16.2043540029351       8.009968358245459E-002  8.507759340630366E-002
   16.9948102957612       0.147082931752698      -6.616345382303115E-003
   17.7852665885873       0.104671653027959      -0.151517256138215     
   18.5757228814134      -8.200398733373679E-002 -0.209941273009013     
   19.3661791742395      -0.262539229851923      -4.627119405198853E-002
   20.1566354670656      -0.191064224128937       0.233619668708133     
   20.9470917598917       0.125618253772794       0.299735397292600     
   21.7375480527178       0.330909952678726       2.745586035522322E-002
   22.5280043455439       0.173161729129874      -0.271764490938652     
   23.3184606383700      -0.143480253922045      -0.261623750678666     
   24.1089169311961      -0.265436067025584      -7.438335130944856E-003
   24.8993732240222      -0.128176930235627       0.190050547548310     
   25.6898295168483       7.038836988568747E-002  0.180773752845325     
   26.4802858096744       0.156464019580722       4.461821367065646E-002
   27.2707421025005       0.112694114153623      -7.733158578423002E-002
   28.0611983953266       1.503146032415020E-002 -0.115139099392651     
   28.8516546881527      -6.286371214448518E-002 -7.854901790846959E-002
   29.6421109809788      -8.886049669978384E-002 -1.068184141459647E-002
   30.4325672738049      -6.611826286206121E-002  4.876067733151427E-002
   31.2230235666310      -1.500463357852532E-002  7.659439124928769E-002
   32.0134798594571       3.973878326211097E-002  6.576533870832978E-002
   32.8039361522832       7.512979125529744E-002  2.218169645538982E-002
   33.5943924451093       7.378092184325430E-002 -3.690990633244028E-002
   34.3848487379354       2.968140259598103E-002 -8.431130425982684E-002
   35.1753050307615      -4.335713489442487E-002 -8.909387265317545E-002
   35.9657613235876      -0.106663214702586      -3.295321592076335E-002
   36.7562176164137      -0.108367621902088       6.606540550341053E-002
   37.5466739092398      -2.120617889488300E-002  0.142951305694556     
   38.3371302020659       0.112245471881524       0.119102804628969     
   39.1275864948920       0.182092247057275      -2.034772583064695E-002
   39.9180427877181       9.943664733616006E-002 -0.175678844313750     
   40.7084990805442      -9.327336198112696E-002 -0.197339199864748     
   41.4989553733703      -0.228234081879083      -3.843473190678585E-002
   42.2894116661964      -0.168653359487973       0.172100583637307     
   43.0798679590225       4.471583749917112E-002  0.242936543449225     
   43.8703242518486       0.226511822260455       0.106651907195729     
   44.6607805446747       0.221446013242043      -0.120462276593389     
   45.4512368375008       3.658509962915945E-002 -0.250733642552474     
   46.2416931303269      -0.178453709043327      -0.182661635271560     
   47.0321494231530      -0.257192823290344       2.979613574114945E-002
   47.8226057159791      -0.137346497603279       0.226233016393370     
   48.6130620088052       9.761802290755042E-002  0.254886563173105     
   49.4035183016313       0.272075873698505       8.062506452124257E-002
   50.1939745944574       0.238444908365036      -0.176786725716793     
   50.9844308872835      -1.593752716730706E-003 -0.311434325971347     
   51.7748871801096      -0.266838636824098      -0.188168571233531     
   52.5653434729357      -0.319799035015323       0.117239884016398     
   53.3557997657618      -8.381292176060456E-002  0.341901408851813     
   54.1462560585879       0.244722258624022       0.262597968721080     
   54.9367123514140       0.354071985116384      -6.389462543306866E-002
   55.7271686442401       0.133895164960020      -0.327103577386665     
   56.5176249370662      -0.195922117799625      -0.277405241940213     
   57.3080812298923      -0.318650053302816       1.331781676582265E-002
   58.0985375227184      -0.151353781960667       0.250745390564977     
   58.8889938155446       0.108746127909846       0.240112778741564     
   59.6794501083707       0.228691979456201       4.644534229393514E-002
   60.4699064011968       0.154019752201850      -0.134252961152608     
   61.2603626940229      -5.728495061350689E-003 -0.178016802325253     
   62.0508189868490      -0.120591758435158      -9.862959487057801E-002
   62.8412752796751      -0.136619806208838       1.855087907513042E-002
   63.6317315725012      -7.487118623191100E-002  9.945938576910053E-002
   64.4221878653273       1.385749602659830E-002  0.114733270843109     
   65.2126441581534       8.466692833387081E-002  7.179015722454750E-002
   66.0031004509795       0.110757870068302      -3.818931018021696E-003
   66.7935567438056       8.255280655503336E-002 -8.042626307361798E-002
   67.5840130366317       6.270376830103244E-003 -0.124654183576506     
   68.3744693294578      -9.233296758140291E-002 -0.105671759698775     
   69.1649256222839      -0.162662702900404      -8.973185182396801E-003
   69.9553819151100      -0.137917635057152       0.136158940322449     
   70.7458382079361       1.966600843992451E-002  0.233258497588178     
   71.5362945007622       0.239798792368077       0.152367703316225     
   72.3267507935883       0.315784543288696      -0.133366287259016     
   73.1172070864144       6.595514995262719E-002 -0.401454056117592     
   73.9076633792405      -0.363557094511589      -0.298436780561454     
   74.6981196720666      -0.485895814818484       0.199698441264218     
   75.4885759648927      -4.572885208552915E-002  0.561254705281592     
   76.2790322577188       0.494637043167883       0.296724155296786     
   77.0694885505449       0.473598056252297      -0.305413805359372     
   77.8599448433710      -5.524050506711503E-002 -0.522570617385395     
   78.6504011361971      -0.435282544077656      -0.175178083484186     
   79.4408574290232      -0.316277591602712       0.250573449947694     
   80.2313137218493       3.810374176708825E-002  0.334723429315091     
   81.0217700146754       0.243576754437804       0.129278198426985     
   81.8122263075015       0.203110980544402      -9.395140278130650E-002
   82.6026826003276       4.781451346935729E-002 -0.175816478044774     
   83.3931388931537      -7.991401093194117E-002 -0.127647151240119     
   84.1835951859798      -0.124449540767980      -2.896882217326541E-002
   84.9740514788059      -9.753499614202306E-002  5.577963097618471E-002
   85.7645077716320      -3.321378027197276E-002  9.766821551223191E-002
   86.5549640644581       3.708460878170863E-002  9.218999404604210E-002
   87.3454203572842       8.927231221136370E-002  4.636286472235623E-002
   88.1358766501103       0.103759243326953      -2.559222627134590E-002
   88.9263329429364       6.550036499928488E-002 -9.888904802007029E-002
   89.7167892357625      -2.608109489906986E-002 -0.134026171298522     
   90.5072455285886      -0.136779750145908      -8.579068456857811E-002
   91.2977018214147      -0.185003809832392       5.817716929409067E-002
   92.0881581142408      -8.071305736933770E-002  0.219390870599490     
   92.8786144070669       0.159783248443706       0.229115730837712     
   93.6690706998930       0.326741270487575      -1.431094394289177E-002
   94.4595269927191       0.172776511556306      -0.328772189071389     
   95.2499832855452      -0.225081517266741      -0.337542404105961     
   96.0404395783713      -0.421349297411287       4.551330609032424E-002
   96.8308958711974      -0.151087905611492       0.394063538265548     
   97.6213521640235       0.265877658776405       0.299598587290874     
   98.4118084568496       0.353710685102357      -8.293438323082454E-002
   99.2022647496757       9.127986790297749E-002 -0.303118851068184     
   99.9927210425018      -0.175933257379720      -0.200912983200015     
   100.783177335328      -0.218730693936017       2.569693655828700E-002
   101.573633628154      -9.119911612594586E-002  0.154635366366641     
   102.364089920980       4.867612549361264E-002  0.138042912579776     
   103.154546213806       0.110900000996430       4.789794855348295E-002
   103.945002506632       9.504834426908598E-002 -3.717681282586609E-002
   104.735458799458       3.910438041257513E-002 -8.011951379177237E-002
   105.525915092285      -2.105087002363710E-002 -7.838958964078156E-002
   106.316371385111      -6.353534637635794E-002 -4.427368233597322E-002
   107.106827677937      -7.733667523169835E-002  6.717396520311345E-003
   107.897283970763      -5.754568799071805E-002  5.802357150763816E-002
   108.687740263589      -5.306362125485256E-003  8.986763520401975E-002
   109.478196556415       6.588665327144659E-002  7.931979646599593E-002
   110.268652849241       0.121264894794793       1.060331178129194E-002
   111.059109142067       0.107476616396974      -9.960850089679182E-002
   111.849565434893      -1.038864619652846E-002 -0.177488866647352     
   112.640021727719      -0.179295364144354      -0.118337159474308     
   113.430478020546      -0.236415621696026       9.706329606012114E-002
   114.220934313372      -5.015481285090187E-002  0.292032205503075     
   115.011390606198       0.254049714673821       0.213847509858290     
   115.801846899024       0.334479003053405      -0.126576646565070     
   116.592303191850       5.078418665298730E-002 -0.365440415573224     
   117.382759484676      -0.292463144252563      -0.217539886433210     
   118.173215777502      -0.315952071317861       0.140169498957101     
   118.963672070328      -3.722965412501469E-002  0.313960978742145     
   119.754128363154       0.217798203961917       0.177395437688558     
   120.544584655980       0.234607281150879      -6.895770328728792E-002
   121.335040948807       7.323571043220574E-002 -0.197483046205020     
   122.125497241633      -9.229994904588577E-002 -0.156131523322945     
   122.915953534459      -0.155002086815170      -2.936959706377643E-002
   123.706409827285      -0.113340806758895       8.209480444740838E-002
   124.496866120111      -2.024107121408066E-002  0.126072922023382     
   125.287322412937       6.853109298102006E-002  9.926385251152386E-002
   126.077778705763       0.115784442051325       2.526766863654246E-002
   126.868234998589       0.104343456703012      -6.191168613497443E-002
   127.658691291415       3.518798993597318E-002 -0.124457382529583     
   128.449147584241      -6.905864998951064E-002 -0.125280000303040     
   129.239603877068      -0.157731358818653      -4.180050568457052E-002
   130.030060169894      -0.158747770792747       0.105079918818635     
   130.820516462720      -2.282684248440615E-002  0.223772572226031     
   131.610972755546       0.195656753280578       0.180562225757865     
   132.401429048372       0.304446921334577      -6.928366283035267E-002
   133.191885341198       0.119647719764377      -0.338505619315613     
   133.982341634024      -0.258268755795725      -0.306935584590802     
   134.772797926850      -0.424491260241426       8.234609640537650E-002
   135.563254219676      -0.133318875061064       0.427284968924817     
   136.353710512502       0.311538265074879       0.316428518698556     
   137.144166805329       0.406106719703705      -0.116609411722208     
   137.934623098155       9.027060707919428E-002 -0.376180943302015     
   138.725079390981      -0.244531525338177      -0.240170532117472     
   139.515535683807      -0.288823138274787       6.484535289019769E-002
   140.305991976633      -9.561164636696141E-002  0.232476819187690     
   141.096448269459       0.107008336161244       0.182863614030322     
   141.886904562285       0.176619137400379       2.889391371155710E-002
   142.677360855111       0.119054445481731      -9.597181891718218E-002
   143.467817147937       1.149504604398732E-002 -0.132816495290825     
   144.258273440764      -7.611572720031938E-002 -9.206485502706513E-002
   145.048729733590      -0.109807168393382      -1.371610443194601E-002
   145.839186026416      -8.669805693695180E-002  6.168430135662396E-002
   146.629642319242      -2.255004876997825E-002  0.103968070964554     
   147.420098612068       5.596534164249130E-002  9.534985728611037E-002
   148.210554904894       0.114431474340088       3.304592904255296E-002
   149.001011197720       0.116141588826919      -6.350419233348825E-002
   149.791467490546       3.871330147862045E-002 -0.145683100938226     
   150.581923783372      -9.630610677884488E-002 -0.145476834705219     
   151.372380076198      -0.202258734414434      -2.139734877507174E-002
   152.162836369024      -0.162944731836165       0.171584459829004     
   152.953292661851       5.156482507586793E-002  0.267435900578563     
   153.743748954677       0.283330663175347       0.120310404870674     
   154.534205247503       0.280381347837099      -0.191607468905960     
   155.324661540329      -1.618766995879743E-002 -0.364012810857135     
   156.115117833155      -0.332470520690971      -0.183325150545656     
   156.905574125981      -0.334154053055003       0.190168637410533     
   157.696030418807      -1.524864943190346E-002  0.379165022719181     
   158.486486711633       0.300195098827255       0.210503086275633     
   159.276943004459       0.325108162066986      -0.126144790965940     
   160.067399297286       7.776210531706118E-002 -0.319171974836499     
   160.857855590112      -0.199229485446237      -0.235425961558820     
   161.648311882938      -0.289815385364958       1.556646821192378E-002
   162.438768175764      -0.157959970924102       0.225290958934650     
   163.229224468590       7.327253345839800E-002  0.253443266391339     
   164.019680761416       0.235824330383644       0.100985355539247     
   164.810137054242       0.225038639453692      -0.116310692485301     
   165.600593347068       5.297463375384568E-002 -0.248419631765071     
   166.391049639894      -0.162500545094559      -0.200717186520012     
   167.181505932720      -0.265476460052144       3.160012699464830E-003
   167.971962225547      -0.164527121889544       0.220205600529336     
   168.762418518373       8.239298255771012E-002  0.273024341535501     
   169.552874811199       0.279415163026659       9.395722063444717E-002
   170.343331104025       0.240802569260114      -0.181858433023573     
   171.133787396851      -1.904965522558903E-002 -0.303488625567585     
   171.924243689677      -0.261853590786461      -0.146563628640032     
