     4.00000      1.1578176    
     4.01200      1.1945809    
     4.02400      1.2331364    
     4.03600      1.2736155    
     4.04800      1.3161628    
     4.06000      1.3609386    
     4.07200      1.4081208    
     4.08400      1.4579079    
     4.09600      1.5105220    
     4.10800      1.5662131    
     4.12000      1.6252643    
     4.13200      1.6879973    
     4.14400      1.7547806    
     4.15600      1.8260391    
     4.16800      1.9022654    
     4.18000      1.9840355    
     4.19200      2.0720272    
     4.20400      2.1670433    
     4.21600      2.2700409    
     4.22800      2.3821665    
     4.24000      2.5047995    
     4.25200      2.6396041    
     4.26400      2.7885906    
     4.27600      2.9541865    
     4.28800      3.1393171    
     4.30000      3.3474947    
     4.31200      3.5829133    
     4.32400      3.8505453    
     4.33600      4.1562354    
     4.34800      4.5067825    
     4.36000      4.9100020    
     4.37200      5.3747576    
     4.38400      5.9109493    
     4.39600      6.5294487    
     4.40800      7.2419680    
     4.42000      8.0608560    
     4.43200      8.9988173    
     4.44400      10.068553    
     4.45600      11.282337    
     4.46800      12.651530    
     4.48000      14.186076    
     4.49200      15.893985    
     4.50400      17.780857    
     4.51600      19.849474    
     4.52800      22.099493    
     4.54000      24.527285    
     4.55200      27.125922    
     4.56400      29.885330    
     4.57600      32.792614    
     4.58800      35.832508    
     4.60000      38.987939    
     4.61200      42.240649    
     4.62400      45.571818    
     4.63600      48.962639    
     4.64800      52.394799    
     4.66000      55.850819    
     4.67200      59.314236    
     4.68400      62.769631    
     4.69600      66.202502    
     4.70800      69.599035    
     4.72000      72.945806    
     4.73200      76.229475    
     4.74400      79.436523    
     4.75600      82.553079    
     4.76800      85.564869    
     4.78000      88.457305    
     4.79200      91.215709    
     4.80400      93.825651    
     4.81600      96.273361    
     4.82800      98.546173    
     4.84000      100.63294    
     4.85200      102.52439    
     4.86400      104.21337    
     4.87600      105.69495    
     4.88800      106.96642    
     4.90000      108.02711    
     4.91200      108.87818    
     4.92400      109.52226    
     4.93600      109.96312    
     4.94800      110.20535    
     4.96000      110.25402    
     4.97200      110.11455    
     4.98400      109.79248    
     4.99600      109.29351    
     5.00800      108.62349    
     5.02000      107.78852    
     5.03200      106.79504    
     5.04400      105.64999    
     5.05600      104.36087    
     5.06800      102.93580    
     5.08000      101.38351    
     5.09200      99.713334    
     5.10400      97.935021    
     5.11600      96.058655    
     5.12800      94.094453    
     5.14000      92.052601    
     5.15200      89.943089    
     5.16400      87.775574    
     5.17600      85.559278    
     5.18800      83.302930    
     5.20000      81.014740    
     5.21200      78.702410    
     5.22400      76.373168    
     5.23600      74.033818    
     5.24800      71.690792    
     5.26000      69.350192    
     5.27200      67.017830    
     5.28400      64.699241    
     5.29600      62.399689    
     5.30800      60.124150    
     5.32000      57.877287    
     5.33200      55.663427    
     5.34400      53.486523    
     5.35600      51.350136    
     5.36800      49.257416    
     5.38000      47.211096    
     5.39200      45.213503    
     5.40400      43.266573    
     5.41600      41.371876    
     5.42800      39.530651    
     5.44000      37.743838    
     5.45200      36.012115    
     5.46400      34.335924    
     5.47600      32.715507    
     5.48800      31.150918    
     5.50000      29.642047    
     5.51200      28.188630    
     5.52400      26.790256    
     5.53600      25.446376    
     5.54800      24.156306    
     5.56000      22.919238    
     5.57200      21.734242    
     5.58400      20.600281    
     5.59600      19.516221    
     5.60800      18.480839    
     5.62000      17.492845    
     5.63200      16.550889    
     5.64400      15.653579    
     5.65600      14.799493    
     5.66800      13.987189    
     5.68000      13.215217    
     5.69200      12.482126    
     5.70400      11.786468    
     5.71600      11.126808    
     5.72800      10.501723    
     5.74000      9.9098087    
     5.75200      9.3496788    
     5.76400      8.8199695    
     5.77600      8.3193411    
     5.78800      7.8464803    
     5.80000      7.4001022    
     5.81200      6.9789534    
     5.82400      6.5818136    
     5.83600      6.2074979    
     5.84800      5.8548589    
     5.86000      5.5227880    
     5.87200      5.2102163    
     5.88400      4.9161153    
     5.89600      4.6394974    
     5.90800      4.3794153    
     5.92000      4.1349618    
     5.93200      3.9052693    
     5.94400      3.6895082    
     5.95600      3.4868868    
     5.96800      3.2966500    
     5.98000      3.1180781    
     5.99200      2.9504858    
     6.00400      2.7932216    
     6.01600      2.6456666    
     6.02800      2.5072335    
     6.04000      2.3773654    
     6.05200      2.2555356    
     6.06400      2.1412455    
     6.07600      2.0340245    
     6.08800      1.9334284    
     6.10000      1.8390381    
     6.11200      1.7504592    
     6.12400      1.6673202    
     6.13600      1.5892717    
     6.14800      1.5159850    
     6.16000      1.4471516    
     6.17200      1.3824814    
     6.18400      1.3217026    
     6.19600      1.2645598    
     6.20800      1.2108139    
     6.22000      1.1602406    
     6.23200      1.1126303    
     6.24400      1.0677865    
     6.25600      1.0255255    
     6.26800     0.98567586    
     6.28000     0.94807711    
     6.29200     0.91257958    
     6.30400     0.87904358    
     6.31600     0.84733876    
     6.32800     0.81734358    
     6.34000     0.78894473    
     6.35200     0.76203660    
     6.36400     0.73652079    
     6.37600     0.71230565    
     6.38800     0.68930579    
     6.40000     0.66744173    
     6.41200     0.64663947    
     6.42400     0.62683012    
     6.43600     0.60794957    
     6.44800     0.58993820    
     6.46000     0.57274049    
     6.47200     0.55630484    
     6.48400     0.54058321    
     6.49600     0.52553095    
     6.50800     0.51110649    
     6.52000     0.49727120    
     6.53200     0.48398911    
     6.54400     0.47122677    
     6.55600     0.45895304    
     6.56800     0.44713894    
     6.58000     0.43575749    
     6.59200     0.42478357    
     6.60400     0.41419378    
     6.61600     0.40396631    
     6.62800     0.39408085    
     6.64000     0.38451844    
     6.65200     0.37526142    
     6.66400     0.36629328    
     6.67600     0.35759863    
     6.68800     0.34916310    
     6.70000     0.34097324    
     6.71200     0.33301649    
     6.72400     0.32528109    
     6.73600     0.31775603    
     6.74800     0.31043100    
     6.76000     0.30329635    
     6.77200     0.29634299    
     6.78400     0.28956242    
     6.79600     0.28294663    
     6.80800     0.27648812    
     6.82000     0.27017980    
     6.83200     0.26401500    
     6.84400     0.25798745    
     6.85600     0.25209121    
     6.86800     0.24632069    
     6.88000     0.24067060    
     6.89200     0.23513594    
     6.90400     0.22971197    
     6.91600     0.22439420    
     6.92800     0.21917837    
     6.94000     0.21406043    
     6.95200     0.20903655    
     6.96400     0.20410306    
     6.97600     0.19925649    
     6.98800     0.19449352    
     7.00000     0.18981097    
     7.01200     0.18520584    
     7.02400     0.18067522    
     7.03600     0.17621635    
     7.04800     0.17182659    
     7.06000     0.16750340    
     7.07200     0.16324434    
     7.08400     0.15904707    
     7.09600     0.15490935    
     7.10800     0.15082901    
     7.12000     0.14680397    
     7.13200     0.14283223    
     7.14400     0.13891185    
     7.15600     0.13504097    
     7.16800     0.13121776    
     7.18000     0.12744050    
     7.19200     0.12370750    
     7.20400     0.12001710    
     7.21600     0.11636774    
     7.22800     0.11275786    
     7.24000     0.10918598    
     7.25200     0.10565063    
     7.26400     0.10215042    
     7.27600     0.98683964E-01
     7.28800     0.95249922E-01
     7.30000     0.91846989E-01
     7.31200     0.88473893E-01
     7.32400     0.85129389E-01
     7.33600     0.81812264E-01
     7.34800     0.78521330E-01
     7.36000     0.75255423E-01
     7.37200     0.72013407E-01
     7.38400     0.68794165E-01
     7.39600     0.65596604E-01
     7.40800     0.62419650E-01
     7.42000     0.59262249E-01
     7.43200     0.56123363E-01
     7.44400     0.53001972E-01
     7.45600     0.49897074E-01
     7.46800     0.46807678E-01
     7.48000     0.43732809E-01
     7.49200     0.40671506E-01
     7.50400     0.37622816E-01
     7.51600     0.34585803E-01
     7.52800     0.31559535E-01
     7.54000     0.28543095E-01
     7.55200     0.25535571E-01
     7.56400     0.22536060E-01
     7.57600     0.19543668E-01
     7.58800     0.16557504E-01
     7.60000     0.13576685E-01
     7.61200     0.10600333E-01
     7.62400     0.76275724E-02
     7.63600     0.46575332E-02
     7.64800     0.16893470E-02
     7.66000    -0.12778520E-02
     7.67200    -0.42449282E-02
     7.68400    -0.72127453E-02
     7.69600    -0.10182167E-01
     7.70800    -0.13154056E-01
     7.72000    -0.16129279E-01
     7.73200    -0.19108703E-01
     7.74400    -0.22093196E-01
     7.75600    -0.25083633E-01
     7.76800    -0.28080888E-01
     7.78000    -0.31085844E-01
     7.79200    -0.34099386E-01
     7.80400    -0.37122408E-01
     7.81600    -0.40155806E-01
     7.82800    -0.43200488E-01
     7.84000    -0.46257368E-01
     7.85200    -0.49327368E-01
     7.86400    -0.52411420E-01
     7.87600    -0.55510466E-01
     7.88800    -0.58625460E-01
     7.90000    -0.61757367E-01
     7.91200    -0.64907163E-01
     7.92400    -0.68075840E-01
     7.93600    -0.71264403E-01
     7.94800    -0.74473871E-01
     7.96000    -0.77705280E-01
     7.97200    -0.80959682E-01
     7.98400    -0.84238147E-01
     7.99600    -0.87541764E-01
     8.00800    -0.90871641E-01
     8.02000    -0.94228907E-01
     8.03200    -0.97614712E-01
     8.04400    -0.10103023    
     8.05600    -0.10447666    
     8.06800    -0.10795521    
     8.08000    -0.11146715    
     8.09200    -0.11501374    
     8.10400    -0.11859628    
     8.11600    -0.12221612    
     8.12800    -0.12587462    
     8.14000    -0.12957316    
     8.15200    -0.13331320    
     8.16400    -0.13709618    
     8.17600    -0.14092363    
     8.18800    -0.14479708    
     8.20000    -0.14871811    
     8.21200    -0.15268836    
     8.22400    -0.15670949    
     8.23600    -0.16078323    
     8.24800    -0.16491134    
     8.26000    -0.16909564    
     8.27200    -0.17333799    
     8.28400    -0.17764033    
     8.29600    -0.18200463    
     8.30800    -0.18643294    
     8.32000    -0.19092736    
     8.33200    -0.19549007    
     8.34400    -0.20012330    
     8.35600    -0.20482938    
     8.36800    -0.20961068    
     8.38000    -0.21446967    
     8.39200    -0.21940890    
     8.40400    -0.22443101    
     8.41600    -0.22953872    
     8.42800    -0.23473484    
     8.44000    -0.24002229    
     8.45200    -0.24540410    
     8.46400    -0.25088339    
     8.47600    -0.25646341    
     8.48800    -0.26214750    
     8.50000    -0.26793916    
     8.51200    -0.27384201    
     8.52400    -0.27985978    
     8.53600    -0.28599639    
     8.54800    -0.29225588    
     8.56000    -0.29864244    
     8.57200    -0.30516046    
     8.58400    -0.31181448    
     8.59600    -0.31860923    
     8.60800    -0.32554964    
     8.62000    -0.33264084    
     8.63200    -0.33988816    
     8.64400    -0.34729719    
     8.65600    -0.35487373    
     8.66800    -0.36262384    
     8.68000    -0.37055385    
     8.69200    -0.37867036    
     8.70400    -0.38698028    
     8.71600    -0.39549083    
     8.72800    -0.40420954    
     8.74000    -0.41314433    
     8.75200    -0.42230345    
     8.76400    -0.43169556    
     8.77600    -0.44132976    
     8.78800    -0.45121554    
     8.80000    -0.46136291    
     8.81200    -0.47178235    
     8.82400    -0.48248488    
     8.83600    -0.49348207    
     8.84800    -0.50478610    
     8.86000    -0.51640980    
     8.87200    -0.52836666    
     8.88400    -0.54067091    
     8.89600    -0.55333756    
     8.90800    -0.56638244    
     8.92000    -0.57982226    
     8.93200    -0.59367472    
     8.94400    -0.60795849    
     8.95600    -0.62269338    
     8.96800    -0.63790034    
     8.98000    -0.65360161    
     8.99200    -0.66982079    
     9.00400    -0.68658292    
