  -516.561975005580      -4.916666777102536E-191  2.647477194627270E-191
  -515.769094000199      -8.646916511878913E-165  2.795394469384287E-164
  -514.976212994818       1.174304500860892E-163  2.549994279870624E-163
  -514.183331989437       1.418516178014428E-162  6.784577342791127E-163
  -513.390450984057       7.102885122776582E-162 -1.567015774642950E-162
  -512.597569978676       2.025908026662709E-161 -2.356399681438791E-161
  -511.804688973295       9.674005095504032E-162 -1.286100353616287E-160
  -511.011807967914      -2.849580309075743E-160 -4.511344587078450E-160
  -510.218926962534      -2.091163518803943E-159 -7.721359949026019E-160
  -509.426045957153      -8.949065055831197E-159  3.029920205222020E-159
  -508.633164951772      -2.044903030263350E-158  3.506186356672895E-158
  -507.840283946391       4.045945182918822E-158  1.711490259258689E-157
  -507.047402941010       6.580632066958950E-157  3.853447404192824E-157
  -506.254521935630       3.101552754949154E-156 -1.062373214609987E-156
  -505.461640930249       4.498822284411125E-156 -1.308476439362861E-155
  -504.668759924868      -3.320682097647159E-155 -4.606604825798260E-155
  -503.875878919487      -2.244938444044289E-154  1.111018389031350E-155
  -503.082997914107      -4.040522909920811E-154  7.505808389777364E-154
  -502.290116908726       1.628294875901213E-153  2.619010366031371E-153
  -501.497235903345       1.060815462986082E-152 -5.113584364879356E-154
  -500.704354897964       1.536901018274692E-152 -3.124265099127895E-152
  -499.911473892583      -6.162810689210979E-152 -8.977666031485083E-152
  -499.118592887203      -3.252564152258833E-151  2.417670507450716E-152
  -498.325711881822      -4.310502935963907E-151  8.360349435437486E-151
  -497.532830876441       1.296174601467510E-150  2.287796568146482E-150
  -496.739949871060       7.145672281110502E-150  6.996286343685300E-151
  -495.947068865680       1.312853743201611E-149 -1.416192151506000E-149
  -495.154187860299      -6.950744715546969E-150 -5.114748304912438E-149
  -494.361306854918      -1.149055979724838E-148 -7.706705494545475E-149
  -493.568425849537      -3.662015311377140E-148  8.149510943365021E-149
  -492.775544844156      -5.622398479763094E-148  8.718024548612036E-148
  -491.982663838776       5.323468891823332E-148  2.896830596265749E-147
  -491.189782833395       6.864318339882189E-147  5.232204324509249E-147
  -490.396901828014       2.610625005154926E-146 -2.053603488865288E-147
  -489.604020822633       5.679460000633271E-146 -5.960606596484332E-146
  -488.811139817252       5.322991277036041E-147 -2.677784521031005E-145
  -488.018258811872      -6.056795969577941E-145 -6.632300346803442E-145
  -487.225377806491      -3.084714014693588E-144 -1.399271807143016E-145
  -486.432496801110      -7.755388834551492E-144  7.528621261402874E-144
  -485.639615795729       1.879923676443279E-144  3.818135323930201E-143
  -484.846734790349       1.089191170988163E-142  8.069514405308327E-143
  -484.053853784968       4.597755533845568E-142 -1.322100726991156E-142
  -483.260972779587       5.597858104530784E-142 -1.572939317992005E-141
  -482.468091774206      -3.397887802833658E-141 -4.614737514464839E-141
  -481.675210768825      -1.922739931188041E-140  1.230265779315834E-141
  -480.882329763445      -2.966555839368302E-140  5.587099536814656E-140
  -480.089448758064       1.049100862989711E-139  1.731547303650383E-139
  -479.296567752683       6.309414092321715E-139 -1.022936724761757E-140
  -478.503686747302       9.303434431221652E-139 -1.673951950334564E-138
  -477.710805741921      -2.915841342238271E-138 -4.853948372264413E-138
  -476.917924736541      -1.632697387238202E-137  2.515755531762432E-139
  -476.125043731160      -2.272248169456622E-137  4.000112389396295E-137
  -475.332162725779       6.225038826636018E-137  1.105966378233739E-136
  -474.539281720398       3.434780336439120E-136  1.407337929302326E-137
  -473.746400715018       5.242598540346139E-136 -7.525317335887615E-136
  -472.953519709637      -8.965102555751226E-136 -2.245780906930237E-135
  -472.160638704256      -6.172049731115402E-135 -1.366288638223529E-135
  -471.367757698875      -1.212883296570318E-134  1.109066334293675E-134
  -470.574876693494       4.897030314233599E-135  4.231750899183965E-134
  -469.781995688114       9.559621800744825E-134  5.497475375834650E-134
  -468.989114682733       2.626076046837437E-133 -1.116547205503283E-133
  -468.196233677352       1.848460854810586E-133 -7.147353923387741E-133
  -467.403352671971      -1.163450831677779E-132 -1.513135151186897E-132
  -466.610471666591      -4.927872320750575E-132 -6.647660428520986E-134
  -465.817590661210      -8.079651785928146E-132  9.798332074693884E-132
  -465.024709655829       6.394588573713274E-132  3.202248642613686E-131
  -464.231828650448       7.369545404534479E-131  3.992402578858984E-131
  -463.438947645067       2.004757330244304E-130 -7.772509745508452E-131
  -462.646066639687       1.876621599845043E-130 -5.195891805624724E-130
  -461.853185634306      -6.774429515357760E-130 -1.254166418116478E-129
  -461.060304628925      -3.593769268806814E-129 -9.015689837658958E-130
  -460.267423623544      -8.176635107069048E-129  5.278490585470025E-129
  -459.474542618163      -4.812157839926299E-129  2.545663858037600E-128
  -458.681661612783       4.062875067784417E-128  5.705657624330538E-128
  -457.888780607402       1.904932975762091E-127  2.834068450610653E-128
  -457.095899602021       4.257701623040741E-127 -3.300609817866771E-127
  -456.303018596640       1.488083500316537E-127 -1.524813734481422E-126
  -455.510137591260      -2.941418637435174E-126 -3.302612050921810E-126
  -454.717256585879      -1.292761070317701E-125 -5.164120018145153E-128
  -453.924375580498      -2.510928018522612E-125  2.872020643116411E-125
  -453.131494575117       1.775070838815118E-125  1.118356818705286E-124
  -452.338613569736       2.927939188345161E-124  1.662999119209837E-124
  -451.545732564356       9.190691145576460E-124 -3.909032870798377E-124
  -450.752851558975       6.652016902304267E-124 -2.864872185753574E-123
  -449.959970553594      -5.727319250625731E-123 -6.358727580904281E-123
  -449.167089548213      -2.423965115960285E-122  3.480078298721071E-123
  -448.374208542832      -2.874479686683953E-122  6.229243045958829E-122
  -447.581327537452       1.019185303770414E-121  1.573108935734474E-121
  -446.788446532071       4.978972254721545E-121 -8.580105584469469E-123
  -445.995565526690       6.611784879552992E-121 -1.100977006361089E-120
  -445.202684521309      -1.440690222010634E-120 -2.874104974051051E-120
  -444.409803515929      -7.774449137474662E-120 -8.974663863187155E-121
  -443.616922510548      -1.219409570043154E-119  1.403418690124514E-119
  -442.824041505167       9.819228459079906E-120  4.220785033930789E-119
  -442.031160499786       9.074695725792079E-119  4.149322011724781E-119
  -441.238279494405       2.058163524429622E-118 -9.984601561122701E-119
  -440.445398489025       1.412270014391436E-118 -5.071739604770015E-118
  -439.652517483644      -6.356638333346431E-118 -1.048608163750841E-117
  -438.859636478263      -2.830911730880590E-117 -6.816257760541924E-118
  -438.066755472882      -6.112206787947045E-117  3.597705501651000E-117
  -437.273874467502      -5.000085750831576E-117  1.708272269132895E-116
  -436.480993462121       2.060683853765797E-116  4.128867544405773E-116
  -435.688112456740       1.158048285585755E-115  4.338068332214153E-116
  -434.895231451359       3.150126119233007E-115 -1.334985054822678E-115
  -434.102350445978       3.734762924037955E-115 -8.998125296454302E-115
  -433.309469440598      -1.124895599221259E-114 -2.610131561375007E-114
  -432.516588435217      -7.977151533351719E-114 -2.771471581734335E-114
  -431.723707429836      -2.191928766003615E-113  1.279016153759258E-113
  -430.930826424455      -1.102738379620904E-113  7.574532669104675E-113
  -430.137945419075       1.631893541218489E-112  1.618565892977051E-112
  -429.345064413694       6.695673881929115E-112 -1.271187700245165E-112
  -428.552183408313       7.389274926825379E-112 -1.836919682956546E-111
  -427.759302402932      -3.365338474042685E-111 -4.471098537939663E-111
  -426.966421397551      -1.518204985885650E-110  1.869977869093652E-111
  -426.173540392171      -1.521723748909072E-110  3.728025380764660E-110
  -425.380659386790       6.378532723540088E-110  7.938717178665183E-110
  -424.587778381409       2.440848879375049E-109 -4.059225413762717E-110
  -423.794897376028       2.051035226724102E-109 -5.413556648978578E-109
  -423.002016370648      -8.015465427228984E-109 -1.036417530444662E-108
  -422.209135365267      -2.879073570204727E-108  2.234461068862873E-109
  -421.416254359886      -3.208606779235784E-108  5.363537396343711E-108
  -420.623373354505       4.929714308887028E-108  1.247030400451613E-107
  -419.830492349124       2.735948427844619E-107  9.000508489414704E-108
  -419.037611343744       5.421130692507991E-107 -3.116549923253992E-107
  -418.244730338363       3.316521349007706E-107 -1.343921588319614E-106
  -417.451849332982      -1.615690551033411E-106 -2.700578109322251E-106
  -416.658968327601      -7.121864736117816E-106 -1.960131542644383E-106
  -415.866087322220      -1.588227256389794E-105  8.377381805473730E-106
  -415.073206316840      -1.471636883030354E-105  4.278147356548926E-105
  -414.280325311459       4.939258168699318E-105  1.071381377454295E-104
  -413.487444306078       2.971558051060152E-104  1.111930102803835E-104
  -412.694563300697       7.892447805022230E-104 -3.785993771388602E-104
  -411.901682295317       6.990104235527649E-104 -2.359577224967934E-103
  -411.108801289936      -3.842709305785244E-103 -5.845654970789304E-103
  -410.315920284555      -1.986984718924806E-102 -1.668014734119674E-103
  -409.523039279174      -3.696292617264762E-102  4.273647919601606E-102
  -408.730158273793       4.094370441566852E-102  1.524642735004770E-101
  -407.937277268413       4.119157674964773E-101  1.287157447481809E-101
  -407.144396263032       8.565963311507772E-101 -7.624329302051586E-101
  -406.351515257651      -5.978824739937682E-101 -2.885606895600027E-100
  -405.558634252270      -6.952950627486287E-100 -2.220538518053663E-100
  -404.765753246890      -1.274308974492988E-099  1.184981797782230E-099
  -403.972872241509       9.053771773132604E-100  3.892812077906253E-099
  -403.179991236128       8.451709100138778E-099  2.693433731640344E-099
  -402.387110230747       1.460893621736644E-098 -1.233866014025068E-098
  -401.594229225366      -4.447307343886790E-099 -4.006937893672548E-098
  -400.801348219986      -7.297681206103191E-098 -4.121907274829801E-098
  -400.008467214605      -1.599295311084257E-097  6.692638684780429E-098
  -399.215586209224      -1.060487217248607E-097  3.441216431169623E-097
  -398.422705203843       3.924836626689049E-097  6.478868201123701E-097
  -397.629824198462       1.590490164823146E-096  3.378277812333604E-097
  -396.836943193082       2.981090262709156E-096 -1.985893309220501E-096
  -396.044062187701       1.599125742395765E-096 -7.970105853484110E-096
  -395.251181182320      -1.049254436093880E-095 -1.587792167132946E-095
  -394.458300176939      -4.501794598846650E-095 -9.100721247478398E-096
  -393.665419171558      -9.393217960063768E-095  6.443757112283542E-095
  -392.872538166178      -4.279320132843980E-095  2.857534790549780E-094
  -392.079657160797       4.784988909079485E-094  5.708797202711222E-094
  -391.286776155416       1.937610667523082E-093 -3.524070465509967E-096
  -390.493895150035       3.108585069044128E-093 -3.975062427861302E-093
  -389.701014144655      -3.500792946972132E-093 -1.257846469809497E-092
  -388.908133139274      -3.144734366394441E-092 -1.100554396355139E-092
  -388.115252133893      -6.633115227210032E-092  5.039791714879615E-092
  -387.322371128512       1.697544868422142E-092  2.022855857268907E-091
  -386.529490123131       4.280294475521594E-091  2.175813799473188E-091
  -385.736609117751       9.368326623971387E-091 -5.760797028422477E-091
  -384.943728112370       1.558183942156334E-093 -2.437596802245283E-090
  -384.150847106989      -4.426144789974467E-090 -2.793617387373123E-090
  -383.357966101608      -9.935966843359594E-090  4.529227973830052E-090
  -382.565085096228      -3.905836630991091E-090  2.189252686065063E-089
  -381.772204090847       3.066451198932867E-089  3.222734151815708E-089
  -380.979323085466       8.767291547713077E-089 -8.245378470468688E-090
  -380.186442080085       9.933131682901735E-089 -1.427772208965787E-088
  -379.393561074704      -7.777276857957933E-089 -3.368623909429722E-088
  -378.600680069324      -5.977207236590779E-088 -3.591483376778186E-088
  -377.807799063943      -1.398517176133597E-087  3.341066633706187E-088
  -377.014918058562      -1.675333945517429E-087  2.547993106905875E-087
  -376.222037053181       1.063033070123052E-087  6.594640043370073E-087
  -375.429156047801       1.183103728477895E-086  9.454755022176732E-087
  -374.636275042420       3.545800426406169E-086 -2.360687886074918E-087
  -373.843394037039       5.878162638898203E-086 -6.291300260324562E-086
  -373.050513031658      -4.453544646448654E-087 -2.144652380675677E-085
  -372.257632026277      -3.988392785013509E-085 -3.735310257091793E-085
  -371.464751020897      -1.409895401944817E-084  1.045337961431081E-085
  -370.671870015516      -2.198465909529808E-084  2.961399700904609E-084
  -369.878989010135       2.398072679220053E-084  9.328919077635437E-084
  -369.086108004754       2.305479993228130E-083  9.695414308327882E-084
  -368.293226999373       5.466214793305123E-083 -3.361726045949036E-083
  -367.500345993993       7.318903173758556E-084 -1.616981805705532E-082
  -366.707464988612      -3.249556733383880E-082 -2.327573844892233E-082
  -365.914583983231      -8.918516841984638E-082  3.647015722442655E-082
  -365.121702977850      -3.670337593583298E-082  2.233278749956314E-081
  -364.328821972470       3.928077131618879E-081  3.371841810650545E-081
  -363.535940967089       1.097109613818639E-080 -3.567217155271998E-081
  -362.743059961708       5.920516598729769E-081 -2.437834225268630E-080
  -361.950178956327      -3.715531994101394E-080 -3.831261851086281E-080
  -361.157297950946      -1.093642821880140E-079  2.150226536636399E-080
  -360.364416945566      -8.888921893764128E-080  2.115206918635197E-079
  -359.571535940185       2.498037444686878E-079  3.953490648302919E-079
  -358.778654934804       9.462613800012631E-079  6.029157842318001E-080
  -357.985773929423       1.248196933195896E-078 -1.459722585420148E-078
  -357.192892924042      -7.941387687859384E-079 -3.819431715026316E-078
  -356.400011918662      -7.122007524144506E-078 -3.572252384285066E-078
  -355.607130913281      -1.491174978931242E-077  6.801091966950336E-078
  -354.814249907900      -8.553514440411377E-078  3.287103805081227E-077
  -354.021368902519       4.188878954343537E-077  5.715194249812178E-077
  -353.228487897139       1.483566006775659E-076  7.422276571146325E-078
  -352.435606891758       2.080817240180542E-076 -2.326632662855683E-076
  -351.642725886377      -1.074555969468159E-076 -6.468823774659480E-076
  -350.849844880996      -1.199473312615606E-075 -6.699705532009672E-076
  -350.056963875615      -2.652096509430241E-075  1.084953919845311E-075
  -349.264082870235      -1.677054124898203E-075  5.701459101985476E-075
  -348.471201864854       6.986983251795195E-075  1.007070134265069E-074
  -347.678320859473       2.508716201785359E-074  1.954259245855422E-075
  -346.885439854092       3.586282665114348E-074 -3.698208541055242E-074
  -346.092558848712      -1.045138000637342E-074 -1.049135770729901E-073
  -345.299677843331      -1.771075836470636E-073 -1.242261232045016E-073
  -344.506796837950      -4.335901875782372E-073  1.057558652446630E-073
  -343.713915832569      -4.353465436931941E-073  8.198707182147263E-073
  -342.921034827188       6.689973079773435E-073  1.832848944675250E-072
  -342.128153821808       3.847199017559681E-072  1.560048524589538E-072
  -341.335272816427       8.056495107515531E-072 -3.902010360423531E-072
  -340.542391811046       5.393470856500373E-072 -1.881005461946177E-071
  -339.749510805665      -2.336237458802784E-071 -3.650884363974825E-071
  -338.956629800285      -9.618780170428389E-071 -1.368565787113444E-071
  -338.163748794904      -1.632338748701221E-070  1.473251322745269E-070
  -337.370867789523       2.880966699328708E-071  5.000203810530182E-070
  -336.577986784142       9.450131304651034E-070  6.436045477902846E-070
  -335.785105778761       2.453431564765677E-069 -8.688982421709390E-070
  -334.992224773381       1.559781261699589E-069 -5.663521690811202E-069
  -334.199343768000      -8.569076893372965E-069 -9.862675329276919E-069
  -333.406462762619      -2.814949899022790E-068  4.205895398225410E-069
  -332.613581757238      -2.370898798179176E-068  5.554676481740948E-068
  -331.820700751857       7.270193962250202E-068  1.007941169989985E-067
  -331.027819746477       2.464086389825739E-067 -2.080180599628648E-068
  -330.234938741096       2.122440316052691E-067 -4.253548727849999E-067
  -329.442057735715      -4.590493810861228E-067 -7.555347910803399E-067
  -328.649176730334      -1.595195475960815E-066 -6.242826996361651E-068
  -327.856295724954      -1.713880712327544E-066  2.233782772078689E-066
  -327.063414719573       1.281005201557470E-066  4.716174341552732E-066
  -326.270533714192       7.673985772360921E-066  3.474635376899201E-066
  -325.477652708811       1.332601879215162E-065 -5.868968109325999E-066
  -324.684771703430       8.859808303717572E-066 -2.390013086317602E-065
  -323.891890698050      -1.820493667079978E-065 -4.181949472656559E-065
  -323.099009692669      -7.666460919539614E-065 -3.461755707245163E-065
  -322.306128687288      -1.542493832264660E-064  4.605382925350690E-065
  -321.513247681907      -1.757754933722812E-064  2.688534260350873E-064
  -320.720366676527       8.023298132814121E-065  6.652976231617399E-064
  -319.927485671146       1.076147841346859E-063  9.898873973143102E-064
  -319.134604665765       3.329731345223929E-063  5.958607037059007E-065
  -318.341723660384       5.838886798857284E-063 -5.295995893269080E-063
  -317.548842655003       8.014839031744944E-064 -1.924675925559078E-062
  -316.755961649623      -3.443846621553350E-062 -3.368783511185859E-062
  -315.963080644242      -1.212076253189219E-061  1.397630460697190E-062
  -315.170199638861      -1.516429816066267E-061  2.695159410858068E-061
  -314.377318633480       3.615790599573493E-061  6.850382452832094E-061
  -313.584437628099       1.892140489059975E-060  6.619266553291652E-062
  -312.791556622719       2.175450596863462E-060 -3.895584080220554E-060
  -311.998675617338      -5.868870909845617E-060 -8.136755503497746E-060
  -311.205794611957      -2.085401627130263E-059  4.550818786971307E-060
  -310.412913606576      -7.713901830126818E-060  4.203394218374775E-059
  -309.620032601196       6.728149351804919E-059  4.391393931703273E-059
  -308.827151595815       1.187114043772566E-058 -7.795073927424834E-059
  -308.034270590434      -3.335512307704107E-059 -2.347779156719807E-058
  -307.241389585053      -3.555154072505128E-058 -1.254920365029748E-058
  -306.448508579672      -4.409484716314896E-058  3.718073515850654E-058
  -305.655627574292       9.611773429385589E-059  8.544586500235395E-058
  -304.862746568911       1.087559597227023E-057  6.489904886111819E-058
  -304.069865563530       1.774342201237706E-057 -5.891794147009920E-058
  -303.276984558149       1.222742607266988E-057 -2.524518295485725E-057
  -302.484103552769      -1.257173596647851E-057 -4.146507525943417E-057
  -301.691222547388      -5.843204914223342E-057 -3.796992882495997E-057
  -300.898341542007      -1.172731347765534E-056  1.051311034826521E-057
  -300.105460536626      -1.563242520282871E-056  1.407402291052248E-056
  -299.312579531245      -8.027759327269726E-057  3.905045140375808E-056
  -298.519698525865       3.399528953607278E-056  7.262578967128403E-056
  -297.726817520484       1.519211920718171E-055  7.778774969125583E-056
  -296.933936515103       3.730522301291295E-055 -8.287030405931836E-056
  -296.141055509722       5.163624273449447E-055 -7.275850422133343E-055
  -295.348174504342      -3.630804384181067E-055 -2.117009888859388E-054
  -294.555293498961      -4.471123309041371E-054 -2.777059319094549E-054
  -293.762412493580      -1.215827602289842E-053  4.441511976045420E-054
  -292.969531488199      -7.920461314086646E-054  3.047961116340339E-053
  -292.176650482818       5.194766745159658E-053  5.375678900897394E-053
  -291.383769477438       1.648597006615916E-052 -4.544443181909227E-053
  -290.590888472057       7.096610262221544E-053 -3.663413329118224E-052
  -289.798007466676      -6.253054614616142E-052 -4.508965503071258E-052
  -289.005126461295      -1.298360474761172E-051  7.541945047402093E-052
  -288.212245455914       2.919388061217254E-052  2.739036757028411E-051
  -287.419364450534       4.517300680129093E-051  1.534910131075319E-051
  -286.626483445153       5.556627395787602E-051 -5.536587323008801E-051
  -285.833602439772      -3.500074670883699E-051 -1.183403621872850E-050
  -285.040721434391      -1.816833685482304E-050 -4.696025300995170E-051
  -284.247840429011      -2.083508485085403E-050  1.854955066905325E-050
  -283.454959423630       3.461599892064810E-051  4.088820020881107E-050
  -282.662078418249       4.952435980418781E-050  3.467632444103243E-050
  -281.869197412868       8.817125206215945E-050 -1.927329832289476E-050
  -281.076316407487       7.485837929034639E-050 -1.158656506860029E-049
  -280.283435402107      -3.721302958681722E-050 -2.145606096262020E-049
  -279.490554396726      -2.776771856646043E-049 -2.251246403894875E-049
  -278.697673391345      -6.127971822107653E-049  1.180873003983172E-050
  -277.904792385964      -8.316078133458931E-049  7.196484832915419E-049
  -277.111911380583      -3.266930551364131E-049  2.037804597246753E-048
  -276.319030375203       2.125048877524782E-048  3.433823601963468E-048
  -275.526149369822       7.875938549820443E-048  2.262662041350370E-048
  -274.733268364441       1.512098876540158E-047 -8.031962012485685E-048
  -273.940387359060       1.002089034296379E-047 -3.511800351293557E-047
  -273.147506353680      -4.225173773027760E-047 -6.647939159064630E-047
  -272.354625348299      -1.689338456941412E-046 -2.042516470710114E-047
  -271.561744342918      -2.535041075934678E-046  2.623216570304588E-046
  -270.768863337537       1.447834398767839E-046  7.560021430557991E-046
  -269.975982332156       1.465708363668324E-045  6.107520139058488E-046
  -269.183101326776       2.603499562629185E-045 -1.837105554977406E-045
  -268.390220321395      -4.226220727720885E-046 -6.187089903090295E-045
  -267.597339316014      -1.042374455135781E-044 -5.299759619078152E-045
  -266.804458310633      -1.808598160783582E-044  1.140170122854592E-044
  -266.011577305253       7.173972191934318E-046  3.798559109473383E-044
  -265.218696299872       5.663537761366976E-044  3.360692060141261E-044
  -264.425815294491       9.991894547144828E-044 -5.027197606283028E-044
  -263.632934289110       2.240691334443627E-044 -1.857225126833663E-043
  -262.840053283729      -2.318743633566206E-043 -2.051938010500771E-043
  -262.047172278349      -4.968583852105813E-043  1.132514563723560E-043
  -261.254291272968      -3.374389599640002E-043  7.665306295575363E-043
  -260.461410267587       6.648593817971943E-043  1.208306654558102E-042
  -259.668529262206       2.251455079406203E-042  3.667594774111532E-043
  -258.875648256826       2.811425618641743E-042 -2.549388326698704E-042
  -258.082767251445      -3.730092972122465E-043 -6.342741202387828E-042
  -257.289886246064      -8.698670752990756E-042 -6.226010267253531E-042
  -256.497005240683      -1.743145677079088E-041  4.821780177894536E-042
  -255.704124235302      -1.215892125236520E-041  2.812954008688490E-041
  -254.911243229922       2.431758110940114E-041  4.586474302435927E-041
  -254.118362224541       8.620191376378282E-041  1.617216483039949E-041
  -253.325481219160       1.114934362915592E-040 -9.651308603433151E-041
  -252.532600213779      -1.004719658904319E-041 -2.461455494468422E-040
  -251.739719208398      -3.288652594064042E-040 -2.424918082637291E-040
  -250.946838203018      -6.515904626471137E-040  1.684294455788345E-040
  -250.153957197637      -4.681752494911627E-040  9.978642888447349E-040
  -249.361076192256       7.481627826867551E-040  1.636218576040775E-039
  -248.568195186875       2.815571950724133E-039  8.331740783071025E-040
  -247.775314181495       4.094308718585318E-039 -2.524008981312037E-039
  -246.982433176114       1.514205129350107E-039 -7.795396855252715E-039
  -246.189552170733      -7.739500475127560E-039 -1.077930317505949E-038
  -245.396671165352      -2.230028867095502E-038 -3.200155268939023E-039
  -244.603790159971      -3.083473494243614E-038  2.383861639357565E-038
  -243.810909154591      -7.688850541971856E-039  6.841350940670693E-038
  -243.018028149210       7.951420441351432E-038  9.545596433999035E-038
  -242.225147143829       2.284542785464104E-037  1.331926850173197E-038
  -241.432266138448       3.060271938963970E-037 -3.009653705270697E-037
  -240.639385133067      -5.218862610862181E-038 -8.148468511034117E-037
  -239.846504127687      -1.272968297424935E-036 -9.137694392128857E-037
  -239.053623122306      -2.887498764807278E-036  8.648339155964874E-037
  -238.260742116925      -1.900738310143011E-036  5.447900543718877E-036
  -237.467861111544       6.499115778039429E-036  8.761482254021870E-036
  -236.674980106164       2.017272450782965E-035 -1.384320728882594E-036
  -235.882099100783       1.680672125761640E-035 -3.239914551265855E-035
  -235.089218095402      -3.398206060356790E-035 -5.400230529826209E-035
  -234.296337090021      -1.075080438518301E-034  4.289553130266011E-036
  -233.503456084640      -8.091685198722407E-035  1.547954809568708E-034
  -232.710575079260       1.447521312258317E-034  2.315057910872157E-034
  -231.917694073879       4.119410435905154E-034 -4.428152953538118E-036
  -231.124813068498       3.218271692202811E-034 -5.096837029591879E-034
  -230.331932063117      -3.358879159515589E-034 -7.928026129541645E-034
  -229.539051057737      -1.174712791018174E-033 -2.927644342966738E-034
  -228.746170052356      -1.356567561927875E-033  1.010550004879006E-033
  -227.953289046975      -2.089487853043997E-034  2.363593520245386E-033
  -227.160408041594       2.209963257295576E-033  2.551797949054033E-033
  -226.367527036213       4.898036206253911E-033  4.494768052058144E-034
  -225.574646030833       5.920276422965154E-033 -4.445722139214894E-033
  -224.781765025452       2.446486385192010E-033 -1.133307284417729E-032
  -223.988884020071      -8.934276538613107E-033 -1.674970344934758E-032
  -223.196003014690      -3.027462023195967E-032 -1.203901756519413E-032
  -222.403122009309      -5.534050997439682E-032  1.927581780331191E-032
  -221.610241003929      -5.271187318807405E-032  9.670405614434369E-032
  -220.817359998548       5.759747197209673E-032  2.071953929436613E-031
  -220.024478993167       3.824391235464356E-031  2.023064087577965E-031
  -219.231597987786       8.253521235082397E-031 -3.263490917762034E-031
  -218.438716982406       5.009170323783806E-031 -1.764455374759137E-030
  -217.645835977025      -2.419864994200738E-030 -2.890148146951824E-030
  -216.852954971644      -7.512647385857878E-030  1.168448864607690E-030
  -216.060073966263      -4.942794398305321E-030  1.401836894197739E-029
  -215.267192960882       1.959749745979845E-029  1.980095820542434E-029
  -214.474311955502       4.643324698031743E-029 -1.748200573233461E-029
  -213.681430950121       3.401788083231669E-030 -8.337694733224696E-029
  -212.888549944740      -1.197961187438762E-028 -5.575574807629085E-029
  -212.095668939359      -1.464513239288269E-028  1.318092687168826E-028
  -211.302787933979       8.464592222404673E-029  2.643891137393488E-028
  -210.509906928598       3.679945911584240E-028  5.395842649633966E-029
  -209.717025923217       2.868024262050108E-028 -3.824573095074807E-028
  -208.924144917836      -2.207847583531758E-028 -5.534914081052408E-028
  -208.131263912455      -7.111738374746414E-028 -1.613049681311302E-028
  -207.338382907075      -6.852957400028442E-028  5.638713154623088E-028
  -206.545501901694      -2.862463743564860E-029  1.087561819463091E-027
  -205.752620896313       9.546506425300181E-028  9.686691552592024E-028
  -204.959739890932       1.751841005709588E-027  5.812149653535044E-029
  -204.166858885551       1.811989325886568E-027 -1.496815164418645E-027
  -203.373977880171       5.970013086877356E-028 -3.246572333608485E-027
  -202.581096874790      -2.353642931305456E-027 -4.270644886544892E-027
  -201.788215869409      -7.038464524452724E-027 -2.825183585781506E-027
  -200.995334864028      -1.178078311775909E-026  3.854515629400180E-027
  -200.202453858648      -1.074897798492038E-026  1.824979676515886E-026
  -199.409572853267       8.364453543846842E-027  3.659970818796513E-026
  -198.616691847886       5.838771501705480E-026  3.551489784143091E-026
  -197.823810842505       1.205743440676821E-025 -3.743859351885698E-026
  -197.030929837124       8.501320336046585E-026 -2.177196314291010E-025
  -196.238048831744      -2.324257777051443E-025 -3.595350383406473E-025
  -195.445167826363      -7.667213210342647E-025 -4.993955204476179E-027
  -194.652286820982      -6.945297752871120E-025  1.133031947730793E-024
  -193.859405815601       1.069993498953333E-024  1.935618159702384E-024
  -193.066524810221       3.515877644642074E-024 -1.950700287130312E-026
  -192.273643804840       2.503521753245690E-024 -4.702882049380001E-024
  -191.480762799459      -4.220360029183321E-024 -6.442878482271325E-024
  -190.687881794078      -1.064251878851092E-023  6.434470162776225E-025
  -189.895000788697      -6.646171810309360E-024  1.257037223080832E-023
  -189.102119783317       8.877989631232864E-024  1.613509703659768E-023
  -188.309238777936       2.321839619600176E-023  2.759404366415467E-024
  -187.516357772555       2.072133085931593E-023 -2.085067732685883E-023
  -186.723476767174      -3.008782123001571E-024 -3.685146453873811E-023
  -185.930595761794      -3.693065750405417E-023 -2.905685971829568E-023
  -185.137714756413      -6.046474925719872E-023  7.239329850001818E-024
  -184.344833751032      -5.203808796560058E-023  6.220343227887799E-023
  -183.551952745651       3.930024273248340E-024  1.116122261569457E-022
  -182.759071740270       1.091791763196737E-022  1.165444915897209E-022
  -181.966190734890       2.362736646200446E-022  2.492386749992720E-023
  -181.173309729509       3.006918441631714E-022 -2.114791298598408E-022
  -180.380428724128       1.317897358606676E-022 -5.750346807333560E-022
  -179.587547718747      -4.940664443917579E-022 -8.428981109653144E-022
  -178.794666713366      -1.604500357617917E-021 -4.189662436056510E-022
  -178.001785707986      -2.416964487949810E-021  1.529804352633317E-021
  -177.208904702605      -7.420391805780930E-022  4.912324956529818E-021
  -176.416023697224       5.824747098280508E-021  6.336365366336272E-021
  -175.623142691843       1.466863765588672E-020 -1.469829095797362E-021
  -174.830261686463       1.219100665676753E-020 -2.156986153692208E-020
  -174.037380681082      -1.820576430638000E-020 -3.631569163876818E-020
  -173.244499675701      -6.433954691659941E-020 -7.234077848178814E-021
  -172.451618670320      -6.311987147095705E-020  7.779135327880720E-020
  -171.658737664939       4.720122044777038E-020  1.430425176417814E-019
  -170.865856659559       2.133828726247859E-019  5.658004616413512E-020
  -170.072975654178       2.379972048433156E-019 -2.090704435411756E-019
  -169.280094648797      -5.064350176831429E-020 -4.447304927086334E-019
  -168.487213643416      -5.460575374423353E-019 -3.071995195361540E-019
  -167.694332638036      -8.002432436130321E-019  3.516376434810591E-019
  -166.901451632655      -2.991268542522463E-019  1.185043357922121E-018
  -166.108570627274       1.039130196096228E-018  1.371830594508459E-018
  -165.315689621893       2.447413914974675E-018  9.063429695732251E-020
  -164.522808616512       2.348183879268505E-018 -2.636688509271763E-018
  -163.729927611132      -7.839643374129659E-019 -5.101526560793362E-018
  -162.937046605751      -6.585780284646211E-018 -3.887186149998950E-018
  -162.144165600370      -1.072034591808179E-017  4.058094378637116E-018
  -161.351284594989      -5.112114460405680E-018  1.655453602202794E-017
  -160.558403589608       1.543963530920340E-017  2.128097653780163E-017
  -159.765522584228       3.984028558750230E-017 -1.566514327246484E-019
  -158.972641578847       3.379540981586383E-017 -4.948207057946196E-017
  -158.179760573466      -3.362364189570514E-017 -8.228843862101586E-017
  -157.386879568085      -1.272165994769914E-016 -2.305056885194835E-017
  -156.593998562705      -1.229281898647360E-016  1.360988114897244E-016
  -155.801117557324       7.139306257376583E-017  2.424500793088612E-016
  -155.008236551943       3.258739737313477E-016  8.856989321708729E-017
  -154.215355546562       3.219810229748806E-016 -2.961858276887788E-016
  -153.422474541181      -8.994251792006794E-017 -5.434797152739114E-016
  -152.629593535801      -6.125521269276764E-016 -2.890493536043956E-016
  -151.836712530420      -7.208047766265646E-016  3.881081651027708E-016
  -151.043831525039      -1.727003834865473E-016  9.653009678649355E-016
  -150.250950519658       7.443826754168935E-016  9.088673035450159E-016
  -149.458069514277       1.418429763357716E-015  8.088602773323788E-017
  -148.665188508897       1.294144097020013E-015 -1.177681524567033E-015
  -147.872307503516       1.413815583221302E-016 -2.207118403516895E-015
  -147.079426498135      -1.826252288789904E-015 -2.234896902553073E-015
  -146.286545492754      -3.861896342389358E-015 -5.734350047099280E-016
  -145.493664487374      -4.558913445781999E-015  3.048365415460983E-015
  -144.700783481993      -1.874438629448685E-015  7.771725831016040E-015
  -143.907902476612       6.045418765878342E-015  1.043590471501752E-014
  -143.115021471231       1.811261491751384E-014  4.798181561081262E-015
  -142.322140465850       2.523860257140398E-014 -1.581045839475128E-014
  -141.529259460470       7.450085935817195E-015 -4.745850277767356E-014
  -140.736378455089      -5.253066283188639E-014 -5.756844287270781E-014
  -139.943497449708      -1.252391604649255E-013  1.321000489570961E-014
  -139.150616444327      -9.448777354100417E-014  1.771226877550219E-013
  -138.357735438947       1.557851104265763E-013  2.712382042214270E-013
  -137.564854433566       4.724688359350888E-013  3.866447306329281E-015
  -136.771973428185       3.389297199144937E-013 -5.979539754706753E-013
  -135.979092422804      -5.094207192148476E-013 -8.119285337096735E-013
  -135.186211417423      -1.275697262582409E-012  8.668408691149611E-014
  -134.393330412043      -6.851192174638075E-013  1.481813072082598E-012
  -133.600449406662       1.159722677394945E-012  1.631385046402467E-012
  -132.807568401281       2.364810988707715E-012 -1.662934021081517E-013
  -132.014687395900       1.342386183716374E-012 -2.382464259586009E-012
  -131.221806390520      -1.304116139810647E-012 -2.815535129473107E-012
  -130.428925385139      -3.406561161663833E-012 -8.087634569137197E-013
  -129.636044379758      -3.213682642869458E-012  2.335857961580414E-012
  -128.843163374377      -5.460401672030115E-013  4.548921753721342E-012
  -128.050282368996       3.368286119295990E-012  4.245656094688426E-012
  -127.257401363616       6.564041103766355E-012  8.874622237130013E-013
  -126.464520358235       6.856812225301516E-012 -4.861686021178568E-012
  -125.671639352854       2.279300956644716E-012 -1.086194068637151E-011
  -124.878758347473      -7.927782092682015E-012 -1.301379084410437E-011
  -124.085877342092      -2.099564851331329E-011 -5.421991729850942E-012
  -123.292996336712      -2.720727206193264E-011  1.646012895183303E-011
  -122.500115331331      -9.326660427379608E-012  4.676397295234112E-011
  -121.707234325950       4.505341383544218E-011  5.674100744578058E-011
  -120.914353320569       1.104074845362512E-010 -9.839629122261845E-013
  -120.121472315189       9.601606364107329E-011 -1.366357462305799E-010
  -119.328591309808      -9.087725951118282E-011 -2.309028498149526E-010
  -118.535710304427      -3.533671714686370E-010 -6.254720357567278E-011
  -117.742829299046      -3.226033678084958E-010  3.834814682092381E-010
  -116.949948293665       2.392121023436675E-010  6.276895274902729E-010
  -116.157067288285       8.531627012982325E-010  1.173076579156430E-010
  -115.364186282904       6.316925937847656E-010 -8.450527406524487E-010
  -114.571305277523      -4.910098386386518E-010 -1.135967315423360E-009
  -113.778424272142      -1.382901974211094E-009 -1.934125397703324E-010
  -112.985543266762      -1.007804893186439E-009  1.146823784916348E-009
  -112.192662261381       3.655752061859387E-010  1.591449618431648E-009
  -111.399781256000       1.559473632194381E-009  7.430390774629167E-010
  -110.606900250619       1.679228221901261E-009 -7.256165056760713E-010
  -109.814019245238       6.849866692107254E-010 -1.839140968887481E-009
  -109.021138239858      -8.568745270042705E-010 -1.979882755656273E-009
  -108.228257234477      -2.229002821312951E-009 -1.025660984490238E-009
  -107.435376229096      -2.799362292588207E-009  7.920002447111825E-010
  -106.642495223715      -2.042735985425691E-009  2.980582205621674E-009
  -105.849614218334       4.372174792754550E-010  4.689405235251896E-009
  -105.056733212954       4.608643966843440E-009  4.488674521948009E-009
  -104.263852207573       9.160608190342469E-009  3.962971222438083E-010
  -103.470971202192       1.018666424556177E-008 -8.918985668391130E-009
  -102.678090196811       9.832764606544927E-010 -2.049756402429102E-008
  -101.885209191431      -2.270759550401147E-008 -2.194385250097055E-008
  -101.092328186050      -4.833242475675326E-008  6.386709756016107E-009
  -100.299447180669      -3.517553316866856E-008  6.579856375893469E-008
  -99.5065661752882       5.393586710888677E-008  9.802809794218391E-008
  -98.7136851699074       1.626155694195744E-007  5.596556953300894E-009
  -97.9208041645266       1.171011488154567E-007 -1.950524351871556E-007
  -97.1279231591459      -1.574999423955806E-007 -2.599042058470345E-007
  -96.3350421537651      -3.854797761761795E-007  2.668282248623001E-008
  -95.5421611483843      -1.858015131681688E-007  4.287032743258192E-007
  -94.7492801430035       3.341512212323611E-007  4.221858577207724E-007
  -93.9563991376227       5.873587105814620E-007 -8.993889426546841E-008
  -93.1635181322419       2.466777587019336E-007 -5.826910315249201E-007
  -92.3706371268612      -3.573642586066133E-007 -5.506914628279650E-007
  -91.5777561214804      -6.696524336745911E-007 -4.442123930606224E-008
  -90.7848751160996      -4.700683118519248E-007  4.973638630105848E-007
  -89.9919941107188       5.263370035740873E-008  7.027667480338535E-007
  -89.1991131053380       5.634732909896415E-007  4.820841451637899E-007
  -88.4062320999573       8.048177292264936E-007 -3.553462314212534E-008
  -87.6133510945765       6.546602741768918E-007 -6.335267606717571E-007
  -86.8204700891957       9.969626191140208E-008 -1.073735463940739E-006
  -86.0275890838149      -7.709790800263122E-007 -1.095317023499880E-006
  -85.2347080784341      -1.693723240249480E-006 -4.186053396817684E-007
  -84.4418270730533      -2.090043325435747E-006  1.125758006165952E-006
  -83.6489460676726      -1.018130144909563E-006  3.193511628434736E-006
  -82.8560650622918       2.331928119918075E-006  4.271788019233285E-006
  -82.0631840569110       7.020835709613924E-006  1.545616193812918E-006
  -81.2703030515302       8.255367823590576E-006 -6.770264129593627E-006
  -80.4774220461494      -1.083597904714037E-006 -1.571367517502763E-005
  -79.6845410407687      -1.999399817249894E-005 -1.099643089987668E-005
  -78.8916600353879      -2.760115964120547E-005  1.643802251441697E-005
  -78.0987790300071       1.719631877398600E-006  4.353920560276765E-005
  -77.3058980246263       5.131153613983154E-005  2.381182750891520E-005
  -76.5130170192455       5.463206846502506E-005 -4.376949696449532E-005
  -75.7201360138647      -1.771736328211490E-005 -8.053158500537374E-005
  -74.9272550084840      -8.964531189736975E-005 -2.303143336718008E-005
  -74.1343740031032      -6.693640762643694E-005  7.344090537789645E-005
  -73.3414929977224       3.182624378034543E-005  9.758909816931417E-005
  -72.5486119923416       9.995130746449445E-005  2.420560828041897E-005
  -71.7557309869608       7.459991908688138E-005 -6.791051838882653E-005
  -70.9628499815800      -9.666921635840855E-006 -9.743320520386159E-005
  -70.1699689761993      -7.919061385873821E-005 -5.256983370289312E-005
  -69.3770879708185      -9.022403760515459E-005  2.368195291605746E-005
  -68.5842069654377      -4.559911395448878E-005  8.156082586929272E-005
  -67.7913259600569       2.504819492796410E-005  9.301764221053782E-005
  -66.9984449546761       8.724658591027384E-005  5.442402135336508E-005
  -66.2055639492953       1.122482503619097E-004 -2.034282977655342E-005
  -65.4126829439146       8.043558466019591E-005 -1.042335889890622E-004
  -64.6198019385338      -1.328623450118175E-005 -1.572753903062262E-004
  -63.8269209331530      -1.460306571464050E-004 -1.303590096884808E-004
  -63.0340399277722      -2.493072824653930E-004  1.315034797210234E-005
  -62.2411589223914      -2.112170677903238E-004  2.469829519486988E-004
  -61.4482779170106       5.782201836940064E-005  4.242909399740768E-004
  -60.6553969116299       4.800722930338245E-004  3.004129913353396E-004
  -59.8625159062491       7.007502956582508E-004 -2.550645785962345E-004
  -59.0696349008683       2.725101898321173E-004 -9.318112608889085E-004
  -58.2767538954875      -7.784961999352038E-004 -9.683143464245631E-004
  -57.4838728901067      -1.550658121916628E-003  1.353584102132170E-004
  -56.6909918847260      -8.960029246102181E-004  1.680181474868180E-003
  -55.8981108793452       1.111363149809175E-003  1.982131396676160E-003
  -55.1052298739644       2.642647553576475E-003  1.518924832485608E-004
  -54.3123488685836       1.774904947229871E-003 -2.437030249501276E-003
  -53.5194678632028      -1.190533903363439E-003 -3.149545592556546E-003
  -52.7265868578220      -3.603359445583923E-003 -8.422911667473103E-004
  -51.9337058524413      -2.976016573780732E-003  2.700593986459577E-003
  -51.1408248470605       5.121534203045588E-004  4.300894968642185E-003
  -50.3479438416797       4.052342545328555E-003  2.286517576978944E-003
  -49.5550628362989       4.582240555758850E-003 -2.005195875194389E-003
  -48.7621818309181       1.292876067217419E-003 -5.240799309266770E-003
  -47.9693008255373      -3.631850753892047E-003 -4.600808401782313E-003
  -47.1764198201566      -6.410792423662416E-003  3.349075563017653E-005
  -46.3835388147758      -4.305562027174771E-003  5.594169568697085E-003
  -45.5906578093950       2.002963489910739E-003  7.549889896914584E-003
  -44.7977768040142       8.015365137076073E-003  3.271246374653309E-003
  -44.0048957986334       8.173672624869668E-003 -4.977346536537829E-003
  -43.2120147932526       8.255107618303981E-004 -1.046756799408120E-002
  -42.4191337878719      -8.737738556838136E-003 -7.289706580585137E-003
  -41.6262527824911      -1.170627461451261E-002  3.172734062907456E-003
  -40.8333717771103      -4.288769400861776E-003  1.192659669748475E-002
  -40.0404907717295       7.436611387966135E-003  1.062128576849276E-002
  -39.2476097663487       1.298949247153745E-002  1.968543047310831E-004
  -38.4547287609680       7.820297390895218E-003 -1.010712811092172E-002
  -37.6618477555872      -3.020900549672785E-003 -1.202241425232243E-002
  -36.8689667502064      -1.075717246290540E-002 -5.151774639450616E-003
  -36.0760857448256      -1.054706441565942E-002  4.489127512582036E-003
  -35.2832047394448      -3.786111273196521E-003  1.041944629564178E-002
  -34.4903237340640       4.668374282087856E-003  9.816133626977289E-003
  -33.6974427286833       1.018806717582179E-002  3.813151508045164E-003
  -32.9045617233025       1.032752700564592E-002 -4.271809898583431E-003
  -32.1116807179217       5.042612831734215E-003 -1.071075846294585E-002
  -31.3187997125409      -3.761388314072248E-003 -1.240620958210943E-002
  -30.5259187071601      -1.261380227765388E-002 -7.528128820004461E-003
  -29.7330377017793      -1.681905364910252E-002  3.629491170053160E-003
  -28.9401566963986      -1.151047655995759E-002  1.729353368856048E-002
  -28.1472756910178       5.405011976399813E-003  2.515540662408356E-002
  -27.3543946856370       2.808817422977151E-002  1.630046140604207E-002
  -26.5615136802562       3.895981718431976E-002 -1.408614717830469E-002
  -25.7686326748754       1.606429117200504E-002 -5.040236831642845E-002
  -24.9757516694946      -4.049270833258813E-002 -5.325541239194619E-002
  -24.1828706641139      -8.261807363244816E-002  6.564880582792689E-003
  -23.3899896587331      -4.372728411075474E-002  8.938194873427104E-002
  -22.5971086533523       6.572938594615488E-002  9.397993813126503E-002
  -21.8042276479715       0.124980541188118      -1.548612160500165E-002
  -21.0113466425907       4.591510601404179E-002 -0.122827968565570     
  -20.2184656372100      -8.566818667574506E-002 -9.681912436326190E-002
  -19.4255846318292      -0.118194792658357       2.568075493822557E-002
  -18.6327036264484      -3.516311175257289E-002  0.102155047767837     
  -17.8398226210676       5.608256226949893E-002  7.419807059854515E-002
  -17.0469416156868       7.813285179956572E-002  2.216090520214200E-005
  -16.2540606103060       4.229487970124776E-002 -4.933018124115710E-002
  -15.4611796049253      -4.931716349753435E-003 -5.411254997507164E-002
  -14.6682985995445      -3.424655935120229E-002 -3.131407078076903E-002
  -13.8754175941637      -4.100844043220511E-002 -2.296643847704213E-003
  -13.0825365887829      -3.184610394651002E-002  2.103322771949828E-002
  -12.2896555834021      -1.396895132018931E-002  3.493043987454141E-002
  -11.4967745780213       8.165811759627814E-003  3.878025171133780E-002
  -10.7038935726406       3.190008429731635E-002  3.145430419039030E-002
  -9.91101256725978       5.349311646875225E-002  9.745899439225389E-003
  -9.11813156187900       6.369024511269132E-002 -3.056451769095534E-002
  -8.32525055649822       4.252423728808610E-002 -8.786563890506965E-002
  -7.53236955111743      -3.937317866327473E-002 -0.136479909218530     
  -6.73948854573665      -0.189853296494866      -0.100657880309622     
  -5.94660754035587      -0.307155277586676       0.127960442148648     
  -5.15372653497509      -0.107263112991394       0.506967951969994     
  -4.36084552959430       0.596186179365694       0.528101917225229     
  -3.56796452421352        1.08530584338340      -0.476137146345985     
  -2.77508351883274      -9.645178671758715E-002  -1.67343966405252     
  -1.98220251345196       -2.15620540373272      -0.512497571539556     
  -1.18932150807117       -1.23555051997601        2.40342980651118     
 -0.396440502690391        2.33001432461505        1.90506566814200     
  0.396440502690391        2.33001432461505       -1.90506566814200     
   1.18932150807117       -1.23555051997601       -2.40342980651118     
   1.98220251345196       -2.15620540373272       0.512497571539556     
   2.77508351883274      -9.645178671758715E-002   1.67343966405252     
   3.56796452421352        1.08530584338340       0.476137146345985     
   4.36084552959430       0.596186179365694      -0.528101917225229     
   5.15372653497509      -0.107263112991394      -0.506967951969994     
   5.94660754035587      -0.307155277586676      -0.127960442148648     
   6.73948854573665      -0.189853296494866       0.100657880309622     
   7.53236955111743      -3.937317866327473E-002  0.136479909218530     
   8.32525055649822       4.252423728808610E-002  8.786563890506965E-002
   9.11813156187900       6.369024511269132E-002  3.056451769095534E-002
   9.91101256725978       5.349311646875225E-002 -9.745899439225389E-003
   10.7038935726406       3.190008429731635E-002 -3.145430419039030E-002
   11.4967745780213       8.165811759627814E-003 -3.878025171133780E-002
   12.2896555834021      -1.396895132018931E-002 -3.493043987454141E-002
   13.0825365887829      -3.184610394651002E-002 -2.103322771949828E-002
   13.8754175941637      -4.100844043220511E-002  2.296643847704213E-003
   14.6682985995445      -3.424655935120229E-002  3.131407078076903E-002
   15.4611796049253      -4.931716349753435E-003  5.411254997507164E-002
   16.2540606103060       4.229487970124776E-002  4.933018124115710E-002
   17.0469416156868       7.813285179956572E-002 -2.216090520214200E-005
   17.8398226210676       5.608256226949893E-002 -7.419807059854515E-002
   18.6327036264484      -3.516311175257289E-002 -0.102155047767837     
   19.4255846318292      -0.118194792658357      -2.568075493822557E-002
   20.2184656372100      -8.566818667574506E-002  9.681912436326190E-002
   21.0113466425907       4.591510601404179E-002  0.122827968565570     
   21.8042276479715       0.124980541188118       1.548612160500165E-002
   22.5971086533523       6.572938594615488E-002 -9.397993813126503E-002
   23.3899896587331      -4.372728411075474E-002 -8.938194873427104E-002
   24.1828706641139      -8.261807363244816E-002 -6.564880582792689E-003
   24.9757516694946      -4.049270833258813E-002  5.325541239194619E-002
   25.7686326748754       1.606429117200504E-002  5.040236831642845E-002
   26.5615136802562       3.895981718431976E-002  1.408614717830469E-002
   27.3543946856370       2.808817422977151E-002 -1.630046140604207E-002
   28.1472756910178       5.405011976399813E-003 -2.515540662408356E-002
   28.9401566963986      -1.151047655995759E-002 -1.729353368856048E-002
   29.7330377017793      -1.681905364910252E-002 -3.629491170053160E-003
   30.5259187071601      -1.261380227765388E-002  7.528128820004461E-003
   31.3187997125409      -3.761388314072248E-003  1.240620958210943E-002
   32.1116807179217       5.042612831734215E-003  1.071075846294585E-002
   32.9045617233025       1.032752700564592E-002  4.271809898583431E-003
   33.6974427286833       1.018806717582179E-002 -3.813151508045164E-003
   34.4903237340640       4.668374282087856E-003 -9.816133626977289E-003
   35.2832047394448      -3.786111273196521E-003 -1.041944629564178E-002
   36.0760857448256      -1.054706441565942E-002 -4.489127512582036E-003
   36.8689667502064      -1.075717246290540E-002  5.151774639450616E-003
   37.6618477555872      -3.020900549672785E-003  1.202241425232243E-002
   38.4547287609680       7.820297390895218E-003  1.010712811092172E-002
   39.2476097663487       1.298949247153745E-002 -1.968543047310831E-004
   40.0404907717295       7.436611387966135E-003 -1.062128576849276E-002
   40.8333717771103      -4.288769400861776E-003 -1.192659669748475E-002
   41.6262527824911      -1.170627461451261E-002 -3.172734062907456E-003
   42.4191337878719      -8.737738556838136E-003  7.289706580585137E-003
   43.2120147932526       8.255107618303981E-004  1.046756799408120E-002
   44.0048957986334       8.173672624869668E-003  4.977346536537829E-003
   44.7977768040142       8.015365137076073E-003 -3.271246374653309E-003
   45.5906578093950       2.002963489910739E-003 -7.549889896914584E-003
   46.3835388147758      -4.305562027174771E-003 -5.594169568697085E-003
   47.1764198201566      -6.410792423662416E-003 -3.349075563017653E-005
   47.9693008255373      -3.631850753892047E-003  4.600808401782313E-003
   48.7621818309181       1.292876067217419E-003  5.240799309266770E-003
   49.5550628362989       4.582240555758850E-003  2.005195875194389E-003
   50.3479438416797       4.052342545328555E-003 -2.286517576978944E-003
   51.1408248470605       5.121534203045588E-004 -4.300894968642185E-003
   51.9337058524412      -2.976016573780732E-003 -2.700593986459577E-003
   52.7265868578220      -3.603359445583923E-003  8.422911667473103E-004
   53.5194678632028      -1.190533903363439E-003  3.149545592556546E-003
   54.3123488685836       1.774904947229871E-003  2.437030249501276E-003
   55.1052298739644       2.642647553576475E-003 -1.518924832485608E-004
   55.8981108793452       1.111363149809175E-003 -1.982131396676160E-003
   56.6909918847259      -8.960029246102181E-004 -1.680181474868180E-003
   57.4838728901067      -1.550658121916628E-003 -1.353584102132170E-004
   58.2767538954875      -7.784961999352038E-004  9.683143464245631E-004
   59.0696349008683       2.725101898321173E-004  9.318112608889085E-004
   59.8625159062491       7.007502956582508E-004  2.550645785962345E-004
   60.6553969116299       4.800722930338245E-004 -3.004129913353396E-004
   61.4482779170106       5.782201836940064E-005 -4.242909399740768E-004
   62.2411589223914      -2.112170677903238E-004 -2.469829519486988E-004
   63.0340399277722      -2.493072824653930E-004 -1.315034797210234E-005
   63.8269209331530      -1.460306571464050E-004  1.303590096884808E-004
   64.6198019385338      -1.328623450118175E-005  1.572753903062262E-004
   65.4126829439146       8.043558466019591E-005  1.042335889890622E-004
   66.2055639492953       1.122482503619097E-004  2.034282977655342E-005
   66.9984449546761       8.724658591027384E-005 -5.442402135336508E-005
   67.7913259600569       2.504819492796410E-005 -9.301764221053782E-005
   68.5842069654377      -4.559911395448878E-005 -8.156082586929272E-005
   69.3770879708185      -9.022403760515459E-005 -2.368195291605746E-005
   70.1699689761992      -7.919061385873821E-005  5.256983370289312E-005
   70.9628499815800      -9.666921635840855E-006  9.743320520386159E-005
   71.7557309869608       7.459991908688138E-005  6.791051838882653E-005
   72.5486119923416       9.995130746449445E-005 -2.420560828041897E-005
   73.3414929977224       3.182624378034543E-005 -9.758909816931417E-005
   74.1343740031032      -6.693640762643694E-005 -7.344090537789645E-005
   74.9272550084840      -8.964531189736975E-005  2.303143336718008E-005
   75.7201360138647      -1.771736328211490E-005  8.053158500537374E-005
   76.5130170192455       5.463206846502506E-005  4.376949696449532E-005
   77.3058980246263       5.131153613983154E-005 -2.381182750891520E-005
   78.0987790300071       1.719631877398600E-006 -4.353920560276765E-005
   78.8916600353879      -2.760115964120547E-005 -1.643802251441697E-005
   79.6845410407687      -1.999399817249894E-005  1.099643089987668E-005
   80.4774220461494      -1.083597904714037E-006  1.571367517502763E-005
   81.2703030515302       8.255367823590576E-006  6.770264129593627E-006
   82.0631840569110       7.020835709613924E-006 -1.545616193812918E-006
   82.8560650622918       2.331928119918075E-006 -4.271788019233285E-006
   83.6489460676726      -1.018130144909563E-006 -3.193511628434736E-006
   84.4418270730533      -2.090043325435747E-006 -1.125758006165952E-006
   85.2347080784341      -1.693723240249480E-006  4.186053396817684E-007
   86.0275890838149      -7.709790800263122E-007  1.095317023499880E-006
   86.8204700891957       9.969626191140208E-008  1.073735463940739E-006
   87.6133510945765       6.546602741768918E-007  6.335267606717571E-007
   88.4062320999573       8.048177292264936E-007  3.553462314212534E-008
   89.1991131053380       5.634732909896415E-007 -4.820841451637899E-007
   89.9919941107188       5.263370035740873E-008 -7.027667480338535E-007
   90.7848751160996      -4.700683118519248E-007 -4.973638630105848E-007
   91.5777561214804      -6.696524336745911E-007  4.442123930606224E-008
   92.3706371268612      -3.573642586066133E-007  5.506914628279650E-007
   93.1635181322419       2.466777587019336E-007  5.826910315249201E-007
   93.9563991376227       5.873587105814620E-007  8.993889426546841E-008
   94.7492801430035       3.341512212323611E-007 -4.221858577207724E-007
   95.5421611483843      -1.858015131681688E-007 -4.287032743258192E-007
   96.3350421537651      -3.854797761761795E-007 -2.668282248623001E-008
   97.1279231591459      -1.574999423955806E-007  2.599042058470345E-007
   97.9208041645266       1.171011488154567E-007  1.950524351871556E-007
   98.7136851699074       1.626155694195744E-007 -5.596556953300894E-009
   99.5065661752882       5.393586710888677E-008 -9.802809794218391E-008
   100.299447180669      -3.517553316866856E-008 -6.579856375893469E-008
   101.092328186050      -4.833242475675326E-008 -6.386709756016107E-009
   101.885209191431      -2.270759550401147E-008  2.194385250097055E-008
   102.678090196811       9.832764606544927E-010  2.049756402429102E-008
   103.470971202192       1.018666424556177E-008  8.918985668391130E-009
   104.263852207573       9.160608190342469E-009 -3.962971222438083E-010
   105.056733212954       4.608643966843440E-009 -4.488674521948009E-009
   105.849614218334       4.372174792754550E-010 -4.689405235251896E-009
   106.642495223715      -2.042735985425691E-009 -2.980582205621674E-009
   107.435376229096      -2.799362292588207E-009 -7.920002447111825E-010
   108.228257234477      -2.229002821312951E-009  1.025660984490238E-009
   109.021138239858      -8.568745270042705E-010  1.979882755656273E-009
   109.814019245238       6.849866692107254E-010  1.839140968887481E-009
   110.606900250619       1.679228221901261E-009  7.256165056760713E-010
   111.399781256000       1.559473632194381E-009 -7.430390774629167E-010
   112.192662261381       3.655752061859387E-010 -1.591449618431648E-009
   112.985543266762      -1.007804893186439E-009 -1.146823784916348E-009
   113.778424272142      -1.382901974211094E-009  1.934125397703324E-010
   114.571305277523      -4.910098386386518E-010  1.135967315423360E-009
   115.364186282904       6.316925937847656E-010  8.450527406524487E-010
   116.157067288285       8.531627012982325E-010 -1.173076579156430E-010
   116.949948293665       2.392121023436675E-010 -6.276895274902729E-010
   117.742829299046      -3.226033678084958E-010 -3.834814682092381E-010
   118.535710304427      -3.533671714686370E-010  6.254720357567278E-011
   119.328591309808      -9.087725951118282E-011  2.309028498149526E-010
   120.121472315189       9.601606364107329E-011  1.366357462305799E-010
   120.914353320569       1.104074845362512E-010  9.839629122261845E-013
   121.707234325950       4.505341383544218E-011 -5.674100744578058E-011
   122.500115331331      -9.326660427379608E-012 -4.676397295234112E-011
   123.292996336712      -2.720727206193264E-011 -1.646012895183303E-011
   124.085877342092      -2.099564851331329E-011  5.421991729850942E-012
   124.878758347473      -7.927782092682015E-012  1.301379084410437E-011
   125.671639352854       2.279300956644716E-012  1.086194068637151E-011
   126.464520358235       6.856812225301516E-012  4.861686021178568E-012
   127.257401363616       6.564041103766355E-012 -8.874622237130013E-013
   128.050282368996       3.368286119295990E-012 -4.245656094688426E-012
   128.843163374377      -5.460401672030115E-013 -4.548921753721342E-012
   129.636044379758      -3.213682642869458E-012 -2.335857961580414E-012
   130.428925385139      -3.406561161663833E-012  8.087634569137197E-013
   131.221806390520      -1.304116139810647E-012  2.815535129473107E-012
   132.014687395900       1.342386183716374E-012  2.382464259586009E-012
   132.807568401281       2.364810988707715E-012  1.662934021081517E-013
   133.600449406662       1.159722677394945E-012 -1.631385046402467E-012
   134.393330412043      -6.851192174638075E-013 -1.481813072082598E-012
   135.186211417423      -1.275697262582409E-012 -8.668408691149611E-014
   135.979092422804      -5.094207192148476E-013  8.119285337096735E-013
   136.771973428185       3.389297199144937E-013  5.979539754706753E-013
   137.564854433566       4.724688359350888E-013 -3.866447306329281E-015
   138.357735438947       1.557851104265763E-013 -2.712382042214270E-013
   139.150616444327      -9.448777354100417E-014 -1.771226877550219E-013
   139.943497449708      -1.252391604649255E-013 -1.321000489570961E-014
   140.736378455089      -5.253066283188639E-014  5.756844287270781E-014
   141.529259460470       7.450085935817195E-015  4.745850277767356E-014
   142.322140465850       2.523860257140398E-014  1.581045839475128E-014
   143.115021471231       1.811261491751384E-014 -4.798181561081262E-015
   143.907902476612       6.045418765878342E-015 -1.043590471501752E-014
   144.700783481993      -1.874438629448685E-015 -7.771725831016040E-015
   145.493664487374      -4.558913445781999E-015 -3.048365415460983E-015
   146.286545492754      -3.861896342389358E-015  5.734350047099280E-016
   147.079426498135      -1.826252288789904E-015  2.234896902553073E-015
   147.872307503516       1.413815583221302E-016  2.207118403516895E-015
   148.665188508897       1.294144097020013E-015  1.177681524567033E-015
   149.458069514277       1.418429763357716E-015 -8.088602773323788E-017
   150.250950519658       7.443826754168935E-016 -9.088673035450159E-016
   151.043831525039      -1.727003834865473E-016 -9.653009678649355E-016
   151.836712530420      -7.208047766265646E-016 -3.881081651027708E-016
   152.629593535801      -6.125521269276764E-016  2.890493536043956E-016
   153.422474541181      -8.994251792006794E-017  5.434797152739114E-016
   154.215355546562       3.219810229748806E-016  2.961858276887788E-016
   155.008236551943       3.258739737313477E-016 -8.856989321708729E-017
   155.801117557324       7.139306257376583E-017 -2.424500793088612E-016
   156.593998562705      -1.229281898647360E-016 -1.360988114897244E-016
   157.386879568085      -1.272165994769914E-016  2.305056885194835E-017
   158.179760573466      -3.362364189570514E-017  8.228843862101586E-017
   158.972641578847       3.379540981586383E-017  4.948207057946196E-017
   159.765522584228       3.984028558750230E-017  1.566514327246484E-019
   160.558403589608       1.543963530920340E-017 -2.128097653780163E-017
   161.351284594989      -5.112114460405680E-018 -1.655453602202794E-017
   162.144165600370      -1.072034591808179E-017 -4.058094378637116E-018
   162.937046605751      -6.585780284646211E-018  3.887186149998950E-018
   163.729927611132      -7.839643374129659E-019  5.101526560793362E-018
   164.522808616512       2.348183879268505E-018  2.636688509271763E-018
   165.315689621893       2.447413914974675E-018 -9.063429695732251E-020
   166.108570627274       1.039130196096228E-018 -1.371830594508459E-018
   166.901451632655      -2.991268542522463E-019 -1.185043357922121E-018
   167.694332638036      -8.002432436130321E-019 -3.516376434810591E-019
   168.487213643416      -5.460575374423353E-019  3.071995195361540E-019
   169.280094648797      -5.064350176831429E-020  4.447304927086334E-019
   170.072975654178       2.379972048433156E-019  2.090704435411756E-019
   170.865856659559       2.133828726247859E-019 -5.658004616413512E-020
   171.658737664939       4.720122044777038E-020 -1.430425176417814E-019
   172.451618670320      -6.311987147095705E-020 -7.779135327880720E-020
   173.244499675701      -6.433954691659941E-020  7.234077848178814E-021
   174.037380681082      -1.820576430638000E-020  3.631569163876818E-020
   174.830261686463       1.219100665676753E-020  2.156986153692208E-020
   175.623142691843       1.466863765588672E-020  1.469829095797362E-021
   176.416023697224       5.824747098280508E-021 -6.336365366336272E-021
   177.208904702605      -7.420391805780930E-022 -4.912324956529818E-021
   178.001785707986      -2.416964487949810E-021 -1.529804352633317E-021
   178.794666713366      -1.604500357617917E-021  4.189662436056510E-022
   179.587547718747      -4.940664443917579E-022  8.428981109653144E-022
   180.380428724128       1.317897358606676E-022  5.750346807333560E-022
   181.173309729509       3.006918441631714E-022  2.114791298598408E-022
   181.966190734890       2.362736646200446E-022 -2.492386749992720E-023
   182.759071740270       1.091791763196737E-022 -1.165444915897209E-022
   183.551952745651       3.930024273248340E-024 -1.116122261569457E-022
   184.344833751032      -5.203808796560058E-023 -6.220343227887799E-023
   185.137714756413      -6.046474925719872E-023 -7.239329850001818E-024
   185.930595761794      -3.693065750405417E-023  2.905685971829568E-023
   186.723476767174      -3.008782123001571E-024  3.685146453873811E-023
   187.516357772555       2.072133085931593E-023  2.085067732685883E-023
   188.309238777936       2.321839619600176E-023 -2.759404366415467E-024
   189.102119783317       8.877989631232864E-024 -1.613509703659768E-023
   189.895000788697      -6.646171810309360E-024 -1.257037223080832E-023
   190.687881794078      -1.064251878851092E-023 -6.434470162776225E-025
   191.480762799459      -4.220360029183321E-024  6.442878482271325E-024
   192.273643804840       2.503521753245690E-024  4.702882049380001E-024
   193.066524810221       3.515877644642074E-024  1.950700287130312E-026
   193.859405815601       1.069993498953333E-024 -1.935618159702384E-024
   194.652286820982      -6.945297752871120E-025 -1.133031947730793E-024
   195.445167826363      -7.667213210342647E-025  4.993955204476179E-027
   196.238048831744      -2.324257777051443E-025  3.595350383406473E-025
   197.030929837124       8.501320336046585E-026  2.177196314291010E-025
   197.823810842505       1.205743440676821E-025  3.743859351885698E-026
   198.616691847886       5.838771501705480E-026 -3.551489784143091E-026
   199.409572853267       8.364453543846842E-027 -3.659970818796513E-026
   200.202453858648      -1.074897798492038E-026 -1.824979676515886E-026
   200.995334864028      -1.178078311775909E-026 -3.854515629400180E-027
   201.788215869409      -7.038464524452724E-027  2.825183585781506E-027
   202.581096874790      -2.353642931305456E-027  4.270644886544892E-027
   203.373977880171       5.970013086877356E-028  3.246572333608485E-027
   204.166858885551       1.811989325886568E-027  1.496815164418645E-027
   204.959739890932       1.751841005709588E-027 -5.812149653535044E-029
   205.752620896313       9.546506425300181E-028 -9.686691552592024E-028
   206.545501901694      -2.862463743564860E-029 -1.087561819463091E-027
   207.338382907075      -6.852957400028442E-028 -5.638713154623088E-028
   208.131263912455      -7.111738374746414E-028  1.613049681311302E-028
   208.924144917836      -2.207847583531758E-028  5.534914081052408E-028
   209.717025923217       2.868024262050108E-028  3.824573095074807E-028
   210.509906928598       3.679945911584240E-028 -5.395842649633966E-029
   211.302787933979       8.464592222404673E-029 -2.643891137393488E-028
   212.095668939359      -1.464513239288269E-028 -1.318092687168826E-028
   212.888549944740      -1.197961187438762E-028  5.575574807629085E-029
   213.681430950121       3.401788083231669E-030  8.337694733224696E-029
   214.474311955502       4.643324698031743E-029  1.748200573233461E-029
   215.267192960882       1.959749745979845E-029 -1.980095820542434E-029
   216.060073966263      -4.942794398305321E-030 -1.401836894197739E-029
   216.852954971644      -7.512647385857878E-030 -1.168448864607690E-030
   217.645835977025      -2.419864994200738E-030  2.890148146951824E-030
   218.438716982406       5.009170323783806E-031  1.764455374759137E-030
   219.231597987786       8.253521235082397E-031  3.263490917762034E-031
   220.024478993167       3.824391235464356E-031 -2.023064087577965E-031
   220.817359998548       5.759747197209673E-032 -2.071953929436613E-031
   221.610241003929      -5.271187318807405E-032 -9.670405614434369E-032
   222.403122009309      -5.534050997439682E-032 -1.927581780331191E-032
   223.196003014690      -3.027462023195967E-032  1.203901756519413E-032
   223.988884020071      -8.934276538613107E-033  1.674970344934758E-032
   224.781765025452       2.446486385192010E-033  1.133307284417729E-032
   225.574646030833       5.920276422965154E-033  4.445722139214894E-033
   226.367527036213       4.898036206253911E-033 -4.494768052058144E-034
   227.160408041594       2.209963257295576E-033 -2.551797949054033E-033
   227.953289046975      -2.089487853043997E-034 -2.363593520245386E-033
   228.746170052356      -1.356567561927875E-033 -1.010550004879006E-033
   229.539051057737      -1.174712791018174E-033  2.927644342966738E-034
   230.331932063117      -3.358879159515589E-034  7.928026129541645E-034
   231.124813068498       3.218271692202811E-034  5.096837029591879E-034
   231.917694073879       4.119410435905154E-034  4.428152953538118E-036
   232.710575079260       1.447521312258317E-034 -2.315057910872157E-034
   233.503456084640      -8.091685198722407E-035 -1.547954809568708E-034
   234.296337090021      -1.075080438518301E-034 -4.289553130266011E-036
   235.089218095402      -3.398206060356790E-035  5.400230529826209E-035
   235.882099100783       1.680672125761640E-035  3.239914551265855E-035
   236.674980106164       2.017272450782965E-035  1.384320728882594E-036
   237.467861111544       6.499115778039429E-036 -8.761482254021870E-036
   238.260742116925      -1.900738310143011E-036 -5.447900543718877E-036
   239.053623122306      -2.887498764807278E-036 -8.648339155964874E-037
   239.846504127687      -1.272968297424935E-036  9.137694392128857E-037
   240.639385133067      -5.218862610862181E-038  8.148468511034117E-037
   241.432266138448       3.060271938963970E-037  3.009653705270697E-037
   242.225147143829       2.284542785464104E-037 -1.331926850173197E-038
   243.018028149210       7.951420441351432E-038 -9.545596433999035E-038
   243.810909154591      -7.688850541971856E-039 -6.841350940670693E-038
   244.603790159971      -3.083473494243614E-038 -2.383861639357565E-038
   245.396671165352      -2.230028867095502E-038  3.200155268939023E-039
   246.189552170733      -7.739500475127560E-039  1.077930317505949E-038
   246.982433176114       1.514205129350107E-039  7.795396855252715E-039
   247.775314181495       4.094308718585318E-039  2.524008981312037E-039
   248.568195186875       2.815571950724133E-039 -8.331740783071025E-040
   249.361076192256       7.481627826867551E-040 -1.636218576040775E-039
   250.153957197637      -4.681752494911627E-040 -9.978642888447349E-040
   250.946838203018      -6.515904626471137E-040 -1.684294455788345E-040
   251.739719208398      -3.288652594064042E-040  2.424918082637291E-040
   252.532600213779      -1.004719658904319E-041  2.461455494468422E-040
   253.325481219160       1.114934362915592E-040  9.651308603433151E-041
   254.118362224541       8.620191376378282E-041 -1.617216483039949E-041
   254.911243229922       2.431758110940114E-041 -4.586474302435927E-041
   255.704124235302      -1.215892125236520E-041 -2.812954008688490E-041
   256.497005240683      -1.743145677079088E-041 -4.821780177894536E-042
   257.289886246064      -8.698670752990756E-042  6.226010267253531E-042
   258.082767251445      -3.730092972122465E-043  6.342741202387828E-042
   258.875648256826       2.811425618641743E-042  2.549388326698704E-042
   259.668529262206       2.251455079406203E-042 -3.667594774111532E-043
   260.461410267587       6.648593817971943E-043 -1.208306654558102E-042
   261.254291272968      -3.374389599640002E-043 -7.665306295575363E-043
   262.047172278349      -4.968583852105813E-043 -1.132514563723560E-043
   262.840053283729      -2.318743633566206E-043  2.051938010500771E-043
   263.632934289110       2.240691334443627E-044  1.857225126833663E-043
   264.425815294491       9.991894547144828E-044  5.027197606283028E-044
   265.218696299872       5.663537761366976E-044 -3.360692060141261E-044
   266.011577305253       7.173972191934318E-046 -3.798559109473383E-044
   266.804458310633      -1.808598160783582E-044 -1.140170122854592E-044
   267.597339316014      -1.042374455135781E-044  5.299759619078152E-045
   268.390220321395      -4.226220727720885E-046  6.187089903090295E-045
   269.183101326776       2.603499562629185E-045  1.837105554977406E-045
   269.975982332156       1.465708363668324E-045 -6.107520139058488E-046
   270.768863337537       1.447834398767839E-046 -7.560021430557991E-046
   271.561744342918      -2.535041075934678E-046 -2.623216570304588E-046
   272.354625348299      -1.689338456941412E-046  2.042516470710114E-047
   273.147506353680      -4.225173773027760E-047  6.647939159064630E-047
   273.940387359060       1.002089034296379E-047  3.511800351293557E-047
   274.733268364441       1.512098876540158E-047  8.031962012485685E-048
   275.526149369822       7.875938549820443E-048 -2.262662041350370E-048
   276.319030375203       2.125048877524782E-048 -3.433823601963468E-048
   277.111911380583      -3.266930551364131E-049 -2.037804597246753E-048
   277.904792385964      -8.316078133458931E-049 -7.196484832915419E-049
   278.697673391345      -6.127971822107653E-049 -1.180873003983172E-050
   279.490554396726      -2.776771856646043E-049  2.251246403894875E-049
   280.283435402107      -3.721302958681722E-050  2.145606096262020E-049
   281.076316407487       7.485837929034639E-050  1.158656506860029E-049
   281.869197412868       8.817125206215945E-050  1.927329832289476E-050
   282.662078418249       4.952435980418781E-050 -3.467632444103243E-050
   283.454959423630       3.461599892064810E-051 -4.088820020881107E-050
   284.247840429011      -2.083508485085403E-050 -1.854955066905325E-050
   285.040721434391      -1.816833685482304E-050  4.696025300995170E-051
   285.833602439772      -3.500074670883699E-051  1.183403621872850E-050
   286.626483445153       5.556627395787602E-051  5.536587323008801E-051
   287.419364450534       4.517300680129093E-051 -1.534910131075319E-051
   288.212245455914       2.919388061217254E-052 -2.739036757028411E-051
   289.005126461295      -1.298360474761172E-051 -7.541945047402093E-052
   289.798007466676      -6.253054614616142E-052  4.508965503071258E-052
   290.590888472057       7.096610262221544E-053  3.663413329118224E-052
   291.383769477438       1.648597006615916E-052  4.544443181909227E-053
   292.176650482818       5.194766745159658E-053 -5.375678900897394E-053
   292.969531488199      -7.920461314086646E-054 -3.047961116340339E-053
   293.762412493580      -1.215827602289842E-053 -4.441511976045420E-054
   294.555293498961      -4.471123309041371E-054  2.777059319094549E-054
   295.348174504342      -3.630804384181067E-055  2.117009888859388E-054
   296.141055509722       5.163624273449447E-055  7.275850422133343E-055
   296.933936515103       3.730522301291295E-055  8.287030405931836E-056
   297.726817520484       1.519211920718171E-055 -7.778774969125583E-056
   298.519698525865       3.399528953607278E-056 -7.262578967128403E-056
   299.312579531245      -8.027759327269726E-057 -3.905045140375808E-056
   300.105460536626      -1.563242520282871E-056 -1.407402291052248E-056
   300.898341542007      -1.172731347765534E-056 -1.051311034826521E-057
   301.691222547388      -5.843204914223342E-057  3.796992882495997E-057
   302.484103552769      -1.257173596647851E-057  4.146507525943417E-057
   303.276984558149       1.222742607266988E-057  2.524518295485725E-057
   304.069865563530       1.774342201237706E-057  5.891794147009920E-058
   304.862746568911       1.087559597227023E-057 -6.489904886111819E-058
   305.655627574292       9.611773429385589E-059 -8.544586500235395E-058
   306.448508579672      -4.409484716314896E-058 -3.718073515850654E-058
   307.241389585053      -3.555154072505128E-058  1.254920365029748E-058
   308.034270590434      -3.335512307704107E-059  2.347779156719807E-058
   308.827151595815       1.187114043772566E-058  7.795073927424834E-059
   309.620032601196       6.728149351804919E-059 -4.391393931703273E-059
   310.412913606576      -7.713901830126818E-060 -4.203394218374775E-059
   311.205794611957      -2.085401627130263E-059 -4.550818786971307E-060
   311.998675617338      -5.868870909845617E-060  8.136755503497746E-060
   312.791556622719       2.175450596863462E-060  3.895584080220554E-060
   313.584437628099       1.892140489059975E-060 -6.619266553291652E-062
   314.377318633480       3.615790599573493E-061 -6.850382452832094E-061
   315.170199638861      -1.516429816066267E-061 -2.695159410858068E-061
   315.963080644242      -1.212076253189219E-061 -1.397630460697190E-062
   316.755961649623      -3.443846621553350E-062  3.368783511185859E-062
   317.548842655003       8.014839031744944E-064  1.924675925559078E-062
   318.341723660384       5.838886798857284E-063  5.295995893269080E-063
   319.134604665765       3.329731345223929E-063 -5.958607037059007E-065
   319.927485671146       1.076147841346859E-063 -9.898873973143102E-064
   320.720366676527       8.023298132814121E-065 -6.652976231617399E-064
   321.513247681907      -1.757754933722812E-064 -2.688534260350873E-064
   322.306128687288      -1.542493832264660E-064 -4.605382925350690E-065
   323.099009692669      -7.666460919539614E-065  3.461755707245163E-065
   323.891890698050      -1.820493667079978E-065  4.181949472656559E-065
   324.684771703430       8.859808303717572E-066  2.390013086317602E-065
   325.477652708811       1.332601879215162E-065  5.868968109325999E-066
   326.270533714192       7.673985772360921E-066 -3.474635376899201E-066
   327.063414719573       1.281005201557470E-066 -4.716174341552732E-066
   327.856295724954      -1.713880712327544E-066 -2.233782772078689E-066
   328.649176730334      -1.595195475960815E-066  6.242826996361651E-068
   329.442057735715      -4.590493810861228E-067  7.555347910803399E-067
   330.234938741096       2.122440316052691E-067  4.253548727849999E-067
   331.027819746477       2.464086389825739E-067  2.080180599628648E-068
   331.820700751857       7.270193962250202E-068 -1.007941169989985E-067
   332.613581757238      -2.370898798179176E-068 -5.554676481740948E-068
   333.406462762619      -2.814949899022790E-068 -4.205895398225410E-069
   334.199343768000      -8.569076893372965E-069  9.862675329276919E-069
   334.992224773381       1.559781261699589E-069  5.663521690811202E-069
   335.785105778761       2.453431564765677E-069  8.688982421709390E-070
   336.577986784142       9.450131304651034E-070 -6.436045477902846E-070
   337.370867789523       2.880966699328708E-071 -5.000203810530182E-070
   338.163748794904      -1.632338748701221E-070 -1.473251322745269E-070
   338.956629800285      -9.618780170428389E-071  1.368565787113444E-071
   339.749510805665      -2.336237458802784E-071  3.650884363974825E-071
   340.542391811046       5.393470856500373E-072  1.881005461946177E-071
   341.335272816427       8.056495107515531E-072  3.902010360423531E-072
   342.128153821808       3.847199017559681E-072 -1.560048524589538E-072
   342.921034827188       6.689973079773435E-073 -1.832848944675250E-072
   343.713915832569      -4.353465436931941E-073 -8.198707182147263E-073
   344.506796837950      -4.335901875782372E-073 -1.057558652446630E-073
   345.299677843331      -1.771075836470636E-073  1.242261232045016E-073
   346.092558848712      -1.045138000637342E-074  1.049135770729901E-073
   346.885439854092       3.586282665114348E-074  3.698208541055242E-074
   347.678320859473       2.508716201785359E-074 -1.954259245855422E-075
   348.471201864854       6.986983251795195E-075 -1.007070134265069E-074
   349.264082870235      -1.677054124898203E-075 -5.701459101985476E-075
   350.056963875615      -2.652096509430241E-075 -1.084953919845311E-075
   350.849844880996      -1.199473312615606E-075  6.699705532009672E-076
   351.642725886377      -1.074555969468159E-076  6.468823774659480E-076
   352.435606891758       2.080817240180542E-076  2.326632662855683E-076
   353.228487897139       1.483566006775659E-076 -7.422276571146325E-078
   354.021368902519       4.188878954343537E-077 -5.715194249812178E-077
   354.814249907900      -8.553514440411377E-078 -3.287103805081227E-077
   355.607130913281      -1.491174978931242E-077 -6.801091966950336E-078
   356.400011918662      -7.122007524144506E-078  3.572252384285066E-078
   357.192892924042      -7.941387687859384E-079  3.819431715026316E-078
   357.985773929423       1.248196933195896E-078  1.459722585420148E-078
   358.778654934804       9.462613800012631E-079 -6.029157842318001E-080
   359.571535940185       2.498037444686878E-079 -3.953490648302919E-079
   360.364416945566      -8.888921893764128E-080 -2.115206918635197E-079
   361.157297950946      -1.093642821880140E-079 -2.150226536636399E-080
   361.950178956327      -3.715531994101394E-080  3.831261851086281E-080
   362.743059961708       5.920516598729769E-081  2.437834225268630E-080
   363.535940967089       1.097109613818639E-080  3.567217155271998E-081
   364.328821972470       3.928077131618879E-081 -3.371841810650545E-081
   365.121702977850      -3.670337593583298E-082 -2.233278749956314E-081
   365.914583983231      -8.918516841984638E-082 -3.647015722442655E-082
   366.707464988612      -3.249556733383880E-082  2.327573844892233E-082
   367.500345993993       7.318903173758556E-084  1.616981805705532E-082
   368.293226999373       5.466214793305123E-083  3.361726045949036E-083
   369.086108004754       2.305479993228130E-083 -9.695414308327882E-084
   369.878989010135       2.398072679220053E-084 -9.328919077635437E-084
   370.671870015516      -2.198465909529808E-084 -2.961399700904609E-084
   371.464751020897      -1.409895401944817E-084 -1.045337961431081E-085
   372.257632026277      -3.988392785013509E-085  3.735310257091793E-085
   373.050513031658      -4.453544646448654E-087  2.144652380675677E-085
   373.843394037039       5.878162638898203E-086  6.291300260324562E-086
   374.636275042420       3.545800426406169E-086  2.360687886074918E-087
   375.429156047801       1.183103728477895E-086 -9.454755022176732E-087
   376.222037053181       1.063033070123052E-087 -6.594640043370073E-087
   377.014918058562      -1.675333945517429E-087 -2.547993106905875E-087
   377.807799063943      -1.398517176133597E-087 -3.341066633706187E-088
   378.600680069324      -5.977207236590779E-088  3.591483376778186E-088
   379.393561074704      -7.777276857957933E-089  3.368623909429722E-088
   380.186442080085       9.933131682901735E-089  1.427772208965787E-088
   380.979323085466       8.767291547713077E-089  8.245378470468688E-090
   381.772204090847       3.066451198932867E-089 -3.222734151815708E-089
   382.565085096228      -3.905836630991091E-090 -2.189252686065063E-089
   383.357966101608      -9.935966843359594E-090 -4.529227973830052E-090
   384.150847106989      -4.426144789974467E-090  2.793617387373123E-090
   384.943728112370       1.558183942156334E-093  2.437596802245283E-090
   385.736609117751       9.368326623971387E-091  5.760797028422477E-091
   386.529490123131       4.280294475521594E-091 -2.175813799473188E-091
   387.322371128512       1.697544868422142E-092 -2.022855857268907E-091
   388.115252133893      -6.633115227210032E-092 -5.039791714879615E-092
   388.908133139274      -3.144734366394441E-092  1.100554396355139E-092
   389.701014144655      -3.500792946972132E-093  1.257846469809497E-092
   390.493895150035       3.108585069044128E-093  3.975062427861302E-093
   391.286776155416       1.937610667523082E-093  3.524070465509967E-096
   392.079657160797       4.784988909079485E-094 -5.708797202711222E-094
   392.872538166178      -4.279320132843980E-095 -2.857534790549780E-094
   393.665419171558      -9.393217960063768E-095 -6.443757112283542E-095
   394.458300176939      -4.501794598846650E-095  9.100721247478398E-096
   395.251181182320      -1.049254436093880E-095  1.587792167132946E-095
   396.044062187701       1.599125742395765E-096  7.970105853484110E-096
   396.836943193082       2.981090262709156E-096  1.985893309220501E-096
   397.629824198462       1.590490164823146E-096 -3.378277812333604E-097
   398.422705203843       3.924836626689049E-097 -6.478868201123701E-097
   399.215586209224      -1.060487217248607E-097 -3.441216431169623E-097
   400.008467214605      -1.599295311084257E-097 -6.692638684780429E-098
   400.801348219986      -7.297681206103191E-098  4.121907274829801E-098
   401.594229225366      -4.447307343886790E-099  4.006937893672548E-098
   402.387110230747       1.460893621736644E-098  1.233866014025068E-098
   403.179991236128       8.451709100138778E-099 -2.693433731640344E-099
   403.972872241509       9.053771773132604E-100 -3.892812077906253E-099
   404.765753246890      -1.274308974492988E-099 -1.184981797782230E-099
   405.558634252270      -6.952950627486287E-100  2.220538518053663E-100
   406.351515257651      -5.978824739937682E-101  2.885606895600027E-100
   407.144396263032       8.565963311507772E-101  7.624329302051586E-101
   407.937277268413       4.119157674964773E-101 -1.287157447481809E-101
   408.730158273793       4.094370441566852E-102 -1.524642735004770E-101
   409.523039279174      -3.696292617264762E-102 -4.273647919601606E-102
   410.315920284555      -1.986984718924806E-102  1.668014734119674E-103
   411.108801289936      -3.842709305785244E-103  5.845654970789304E-103
   411.901682295317       6.990104235527649E-104  2.359577224967934E-103
   412.694563300697       7.892447805022230E-104  3.785993771388602E-104
   413.487444306078       2.971558051060152E-104 -1.111930102803835E-104
   414.280325311459       4.939258168699318E-105 -1.071381377454295E-104
   415.073206316840      -1.471636883030354E-105 -4.278147356548926E-105
   415.866087322220      -1.588227256389794E-105 -8.377381805473730E-106
   416.658968327601      -7.121864736117816E-106  1.960131542644383E-106
   417.451849332982      -1.615690551033411E-106  2.700578109322251E-106
   418.244730338363       3.316521349007706E-107  1.343921588319614E-106
   419.037611343744       5.421130692507991E-107  3.116549923253992E-107
   419.830492349124       2.735948427844619E-107 -9.000508489414704E-108
   420.623373354505       4.929714308887028E-108 -1.247030400451613E-107
   421.416254359886      -3.208606779235784E-108 -5.363537396343711E-108
   422.209135365267      -2.879073570204727E-108 -2.234461068862873E-109
   423.002016370648      -8.015465427228984E-109  1.036417530444662E-108
   423.794897376028       2.051035226724102E-109  5.413556648978578E-109
   424.587778381409       2.440848879375049E-109  4.059225413762717E-110
   425.380659386790       6.378532723540088E-110 -7.938717178665183E-110
   426.173540392171      -1.521723748909072E-110 -3.728025380764660E-110
   426.966421397551      -1.518204985885650E-110 -1.869977869093652E-111
   427.759302402932      -3.365338474042685E-111  4.471098537939663E-111
   428.552183408313       7.389274926825379E-112  1.836919682956546E-111
   429.345064413694       6.695673881929115E-112  1.271187700245165E-112
   430.137945419075       1.631893541218489E-112 -1.618565892977051E-112
   430.930826424455      -1.102738379620904E-113 -7.574532669104675E-113
   431.723707429836      -2.191928766003615E-113 -1.279016153759258E-113
   432.516588435217      -7.977151533351719E-114  2.771471581734335E-114
   433.309469440598      -1.124895599221259E-114  2.610131561375007E-114
   434.102350445978       3.734762924037955E-115  8.998125296454302E-115
   434.895231451359       3.150126119233007E-115  1.334985054822678E-115
   435.688112456740       1.158048285585755E-115 -4.338068332214153E-116
   436.480993462121       2.060683853765797E-116 -4.128867544405773E-116
   437.273874467502      -5.000085750831576E-117 -1.708272269132895E-116
   438.066755472882      -6.112206787947045E-117 -3.597705501651000E-117
   438.859636478263      -2.830911730880590E-117  6.816257760541924E-118
   439.652517483644      -6.356638333346431E-118  1.048608163750841E-117
   440.445398489025       1.412270014391436E-118  5.071739604770015E-118
   441.238279494405       2.058163524429622E-118  9.984601561122701E-119
   442.031160499786       9.074695725792079E-119 -4.149322011724781E-119
   442.824041505167       9.819228459079906E-120 -4.220785033930789E-119
   443.616922510548      -1.219409570043154E-119 -1.403418690124514E-119
   444.409803515929      -7.774449137474662E-120  8.974663863187155E-121
   445.202684521309      -1.440690222010634E-120  2.874104974051051E-120
   445.995565526690       6.611784879552992E-121  1.100977006361089E-120
   446.788446532071       4.978972254721545E-121  8.580105584469469E-123
   447.581327537452       1.019185303770414E-121 -1.573108935734474E-121
   448.374208542832      -2.874479686683953E-122 -6.229243045958829E-122
   449.167089548213      -2.423965115960285E-122 -3.480078298721071E-123
   449.959970553594      -5.727319250625731E-123  6.358727580904281E-123
   450.752851558975       6.652016902304267E-124  2.864872185753574E-123
   451.545732564356       9.190691145576460E-124  3.909032870798377E-124
   452.338613569736       2.927939188345161E-124 -1.662999119209837E-124
   453.131494575117       1.775070838815118E-125 -1.118356818705286E-124
   453.924375580498      -2.510928018522612E-125 -2.872020643116411E-125
   454.717256585879      -1.292761070317701E-125  5.164120018145153E-128
   455.510137591260      -2.941418637435174E-126  3.302612050921810E-126
   456.303018596640       1.488083500316537E-127  1.524813734481422E-126
   457.095899602021       4.257701623040741E-127  3.300609817866771E-127
   457.888780607402       1.904932975762091E-127 -2.834068450610653E-128
   458.681661612783       4.062875067784417E-128 -5.705657624330538E-128
   459.474542618163      -4.812157839926299E-129 -2.545663858037600E-128
   460.267423623544      -8.176635107069048E-129 -5.278490585470025E-129
   461.060304628925      -3.593769268806814E-129  9.015689837658958E-130
   461.853185634306      -6.774429515357760E-130  1.254166418116478E-129
   462.646066639687       1.876621599845043E-130  5.195891805624724E-130
   463.438947645067       2.004757330244304E-130  7.772509745508452E-131
   464.231828650448       7.369545404534479E-131 -3.992402578858984E-131
   465.024709655829       6.394588573713274E-132 -3.202248642613686E-131
   465.817590661210      -8.079651785928146E-132 -9.798332074693884E-132
   466.610471666591      -4.927872320750575E-132  6.647660428520986E-134
   467.403352671971      -1.163450831677779E-132  1.513135151186897E-132
   468.196233677352       1.848460854810586E-133  7.147353923387741E-133
   468.989114682733       2.626076046837437E-133  1.116547205503283E-133
   469.781995688114       9.559621800744825E-134 -5.497475375834650E-134
   470.574876693494       4.897030314233599E-135 -4.231750899183965E-134
   471.367757698875      -1.212883296570318E-134 -1.109066334293675E-134
   472.160638704256      -6.172049731115402E-135  1.366288638223529E-135
   472.953519709637      -8.965102555751226E-136  2.245780906930237E-135
   473.746400715018       5.242598540346139E-136  7.525317335887615E-136
   474.539281720398       3.434780336439120E-136 -1.407337929302326E-137
   475.332162725779       6.225038826636018E-137 -1.105966378233739E-136
   476.125043731160      -2.272248169456622E-137 -4.000112389396295E-137
   476.917924736541      -1.632697387238202E-137 -2.515755531762432E-139
   477.710805741921      -2.915841342238271E-138  4.853948372264413E-138
   478.503686747302       9.303434431221652E-139  1.673951950334564E-138
   479.296567752683       6.309414092321715E-139  1.022936724761757E-140
   480.089448758064       1.049100862989711E-139 -1.731547303650383E-139
   480.882329763445      -2.966555839368302E-140 -5.587099536814656E-140
   481.675210768825      -1.922739931188041E-140 -1.230265779315834E-141
   482.468091774206      -3.397887802833658E-141  4.614737514464839E-141
   483.260972779587       5.597858104530784E-142  1.572939317992005E-141
   484.053853784968       4.597755533845568E-142  1.322100726991156E-142
   484.846734790349       1.089191170988163E-142 -8.069514405308327E-143
   485.639615795729       1.879923676443279E-144 -3.818135323930201E-143
   486.432496801110      -7.755388834551492E-144 -7.528621261402874E-144
   487.225377806491      -3.084714014693588E-144  1.399271807143016E-145
   488.018258811872      -6.056795969577941E-145  6.632300346803442E-145
   488.811139817252       5.322991277036041E-147  2.677784521031005E-145
   489.604020822633       5.679460000633271E-146  5.960606596484332E-146
   490.396901828014       2.610625005154926E-146  2.053603488865288E-147
   491.189782833395       6.864318339882189E-147 -5.232204324509249E-147
   491.982663838776       5.323468891823332E-148 -2.896830596265749E-147
   492.775544844156      -5.622398479763094E-148 -8.718024548612036E-148
   493.568425849537      -3.662015311377140E-148 -8.149510943365021E-149
   494.361306854918      -1.149055979724838E-148  7.706705494545475E-149
   495.154187860299      -6.950744715546969E-150  5.114748304912438E-149
   495.947068865680       1.312853743201611E-149  1.416192151506000E-149
   496.739949871060       7.145672281110502E-150 -6.996286343685300E-151
   497.532830876441       1.296174601467510E-150 -2.287796568146482E-150
   498.325711881822      -4.310502935963907E-151 -8.360349435437486E-151
   499.118592887203      -3.252564152258833E-151 -2.417670507450716E-152
   499.911473892583      -6.162810689210979E-152  8.977666031485083E-152
   500.704354897964       1.536901018274692E-152  3.124265099127895E-152
   501.497235903345       1.060815462986082E-152  5.113584364879356E-154
   502.290116908726       1.628294875901213E-153 -2.619010366031371E-153
   503.082997914107      -4.040522909920811E-154 -7.505808389777364E-154
   503.875878919487      -2.244938444044289E-154 -1.111018389031350E-155
   504.668759924868      -3.320682097647159E-155  4.606604825798260E-155
   505.461640930249       4.498822284411125E-156  1.308476439362861E-155
   506.254521935630       3.101552754949154E-156  1.062373214609987E-156
   507.047402941010       6.580632066958950E-157 -3.853447404192824E-157
   507.840283946391       4.045945182918822E-158 -1.711490259258689E-157
   508.633164951772      -2.044903030263350E-158 -3.506186356672895E-158
   509.426045957153      -8.949065055831197E-159 -3.029920205222020E-159
   510.218926962534      -2.091163518803943E-159  7.721359949026019E-160
   511.011807967914      -2.849580309075743E-160  4.511344587078450E-160
   511.804688973295       9.674005095504032E-162  1.286100353616287E-160
   512.597569978676       2.025908026662709E-161  2.356399681438791E-161
   513.390450984057       7.102885122776582E-162  1.567015774642950E-162
   514.183331989437       1.418516178014428E-162 -6.784577342791127E-163
   514.976212994818       1.174304500860892E-163 -2.549994279870624E-163
   515.769094000199      -8.646916511878913E-165 -2.795394469384287E-164
   516.561975005580      -4.916666777102536E-191 -2.647477194627270E-191
