  -171.924243689677      -7.929059980561018E-191  4.438021258234997E-191
  -171.133787396851      -1.015295015103234E-163  1.617512154579026E-162
  -170.343331104025       1.369456979441674E-160  1.034238551273257E-160
  -169.552874811199       9.395521192794119E-159 -3.159374201903117E-159
  -168.762418518373       1.275024917648474E-157 -4.225030187959325E-157
  -167.971962225547      -1.014483527920052E-155 -1.357800172562012E-155
  -167.181505932720      -5.921530764529179E-154 -7.048501555470704E-156
  -166.391049639894      -1.220880922542806E-152  1.508005919033398E-152
  -165.600593347068       1.267261461781580E-151  5.942705090679217E-151
  -164.810137054242       1.636195667353400E-149  8.456638894250200E-150
  -164.019680761416       5.007667874201666E-148 -2.144397568631000E-148
  -163.229224468590       4.387389690022330E-147 -1.517559611340964E-146
  -162.438768175764      -2.584049533652824E-145 -3.685509651372379E-145
  -161.648311882938      -1.258316931589529E-143 -6.758630323040893E-145
  -160.857855590112      -2.234915551646474E-142  2.640960205115417E-142
  -160.067399297286       2.197608992822998E-141  9.020013016595555E-141
  -159.276943004459       2.259930689459604E-139  8.768727386200095E-140
  -158.486486711633       5.016895175632874E-138 -3.517951899007387E-138
  -157.696030418807      -5.993702678098287E-138 -1.490363079210398E-136
  -156.905574125981      -3.024383550204028E-135 -1.721190850420301E-135
  -156.115117833155      -6.787957211467237E-134  3.742898092448830E-134
  -155.324661540329      -7.307533531607730E-134  1.643248119120231E-132
  -154.534205247503       2.744373275088760E-131  1.875454344696387E-131
  -153.743748954677       5.898989839472016E-130 -2.504881921218838E-130
  -152.953292661851       2.241109120389171E-129 -1.162329233201652E-128
  -152.162836369024      -1.451258421232711E-127 -1.528207690260784E-127
  -151.372380076198      -3.624888848576880E-126  3.834841110245402E-127
  -150.581923783372      -3.411278845900054E-125  5.152965532476723E-125
  -149.791467490546       2.662478659642498E-124  1.001924745510988E-123
  -149.001011197720       1.523864858129077E-122  8.332226898074163E-123
  -148.210554904894       2.815025646618474E-121 -8.129331401835470E-122
  -147.420098612068       2.537157186232540E-120 -4.322631981147916E-120
  -146.629642319242      -1.852002421894803E-119 -8.538745134885574E-119
  -145.839186026416      -1.268234109932725E-117 -9.023285848808603E-118
  -145.048729733590      -2.813180353879187E-116  3.513966900728430E-117
  -144.258273440763      -3.358498648402007E-115  4.062231322575179E-115
  -143.467817147937       8.591219364317466E-115  9.926499136035785E-114
  -142.677360855111       1.482420159692728E-112  1.195004172666887E-112
  -141.886904562285       3.604035810753314E-111 -5.896003188669439E-112
  -141.096448269459       3.520234515280525E-110 -6.015632321658455E-110
  -140.305991976633      -4.988556477914994E-109 -1.212952382257654E-108
  -139.515535683807      -2.351483074227623E-107 -5.279450624158258E-108
  -138.725079390981      -3.056696616309410E-106  3.002183263877491E-106
  -137.934623098155       1.704737786050366E-105  7.104082814868106E-105
  -137.144166805329       1.140128810055632E-103  3.273763850180270E-104
  -136.353710512502       1.279550831864084E-102 -1.299636095196657E-102
  -135.563254219676      -7.883512944209884E-102 -2.526653920416180E-101
  -134.772797926850      -3.556697523171808E-100 -6.899556823885989E-101
  -133.982341634024      -3.017764850221057E-099  3.586416853275083E-099
  -133.191885341198       1.918910915737997E-098  5.428955346767723E-098
  -132.401429048372       6.596530458956038E-097  1.501187104027894E-097
  -131.610972755546       5.637460064491994E-096 -5.202541286198443E-096
  -130.820516462720      -8.609217112026188E-096 -8.439654583530454E-095
  -130.030060169894      -7.714572708545896E-094 -5.106507448175750E-094
  -129.239603877068      -9.722499811422433E-093  2.576566966007380E-093
  -128.449147584241      -5.315133877181545E-092  9.642238500827061E-092
  -127.658691291415       3.329032953283247E-091  1.177454945492047E-090
  -126.868234998589       1.194587045331750E-089  7.088024543981857E-090
  -126.077778705763       1.579220545217194E-088 -3.446337066847013E-089
  -125.287322412937       1.096327753901870E-087 -1.587975789292390E-087
  -124.496866120111      -3.739170348659409E-087 -2.328968298232882E-086
  -123.706409827285      -2.380422970702398E-085 -1.724183582861217E-085
  -122.915953534459      -3.643983038890697E-084  6.904572432439077E-085
  -122.125497241633      -2.391462507692116E-083  4.045318422765941E-083
  -121.335040948807       2.059054158182989E-082  5.552322563123158E-082
  -120.544584655980       7.047503833833239E-081  2.071460339617326E-081
  -119.754128363154       6.882872962591160E-080 -5.606062123299677E-080
  -118.963672070328      -1.218722728997765E-079 -1.027759698026163E-078
  -118.173215777502      -1.054926680080613E-077 -4.680094153730550E-078
  -117.382759484676      -9.807260523338759E-077  7.294834861741125E-077
  -116.592303191850       1.684132620627200E-076  1.211893239460247E-075
  -115.801846899024       1.080161614338648E-074  4.087647763930598E-075
  -115.011390606198       7.867133008959736E-074 -6.622195210295819E-074
  -114.220934313372      -1.466556622489684E-073 -8.539195754432991E-073
  -113.430478020546      -6.427852526336855E-072 -2.639032684552583E-072
  -112.640021727719      -4.463563644023130E-071  2.946007250590259E-071
  -111.849565434893      -2.331944254265486E-071  3.984100863043120E-070
  -111.059109142067       2.142137496295387E-069  1.985316544881465E-069
  -110.268652849241       2.113362846348324E-068 -1.847908679981154E-069
  -109.478196556415       9.887288583777842E-068 -1.190313484029548E-067
  -108.687740263589      -6.752369076098194E-068 -1.143569599178466E-066
  -107.897283970763      -6.114962067494472E-066 -6.165743275968661E-066
  -107.106827677937      -6.758240475670939E-065 -5.870149048777814E-066
  -106.316371385111      -4.496549299987838E-064  3.133355001111369E-064
  -105.525915092285      -1.188232802285137E-063  4.424761620980948E-063
  -104.735458799458       1.733720554104734E-062  3.552155701743446E-062
  -103.945002506632       3.259702511315327E-061  1.274986440459127E-061
  -103.154546213806       2.897376637475010E-060 -1.251383190937114E-060
  -102.364089920980       9.540965442914037E-060 -2.705767242579058E-059
  -101.573633628154      -1.320794808668956E-058 -2.239512813387627E-058
  -100.783177335328      -2.305105565031545E-057 -2.708085929727681E-058
  -99.9927210425018      -1.328726966326982E-056  1.517385073402455E-056
  -99.2022647496757       4.865664826698234E-056  1.615772202386740E-055
  -98.4118084568496       1.310598435223161E-054  3.072954181665812E-055
  -97.6213521640235       6.744265385680699E-054 -7.599632068236017E-054
  -96.8308958711974      -2.584002908271946E-053 -6.739529049667719E-053
  -96.0404395783713      -4.785168539218325E-052 -5.168843089505518E-053
  -95.2499832855452      -1.671743340929869E-051  2.507021781254810E-051
  -94.4595269927191       8.265598501521710E-051  1.572840479792235E-050
  -93.6690706998930       9.916086503862518E-050  4.343147649450009E-051
  -92.8786144070669       3.029722984569492E-049 -4.344367777013966E-049
  -92.0881581142408      -9.417621155339917E-049 -2.559858555217001E-048
  -91.2977018214147      -1.308265490763073E-047 -4.114033273514438E-048
  -90.5072455285886      -5.773623946512143E-047  3.621319312869299E-047
  -89.7167892357625      -6.472308846813177E-047  3.326005973126748E-046
  -88.9263329429364       9.411972286352804E-046  1.420970676115889E-045
  -88.1358766501103       8.502868933226542E-045  2.097233352107581E-045
  -87.3454203572842       4.109196823770956E-044 -2.134078660435746E-044
  -86.5549640644581       9.443574997984880E-044 -2.347613070323095E-043
  -85.7645077716320      -4.608568731530228E-043 -1.355192574853790E-042
  -84.9740514788059      -7.263016591270281E-042 -4.153672028089754E-042
  -84.1835951859798      -4.898506904781239E-041  1.140253106306613E-041
  -83.3931388931537      -1.637621446948606E-040  2.615783015705952E-040
  -82.6026826003276       5.024328231636778E-040  1.847471886947922E-039
  -81.8122263075015       1.077923714071050E-038  4.986064503099174E-039
  -81.0217700146754       6.430380254985085E-038 -3.412919991005124E-038
  -80.2313137218493       4.928622743745567E-038 -4.329563003735772E-037
  -79.4408574290232      -1.974219945961904E-036 -1.564091532088748E-036
  -78.6504011361971      -1.291458936526065E-035  5.197435653629142E-036
  -77.8599448433710      -7.672967014778271E-036  7.258563449445057E-035
  -77.0694885505449       3.033381542477942E-034  1.956166389968323E-034
  -76.2790322577188       1.438902184972216E-033 -8.631723832411583E-034
  -75.4885759648927      -5.950856156427143E-034 -7.303804635204446E-033
  -74.6981196720666      -2.786087561457036E-032 -1.145054816857073E-032
  -73.9076633792405      -9.047019022904391E-032  7.426517792208168E-032
  -73.1172070864144       7.015886691972286E-032  4.270411289757849E-031
  -72.3267507935883       1.414315318809672E-030  5.973122722183249E-031
  -71.5362945007622       4.453949255488748E-030 -2.830031010765721E-030
  -70.7458382079361       1.492036923657727E-030 -1.769704778789487E-029
  -69.9553819151100      -4.209894306542041E-029 -4.156210679009539E-029
  -69.1649256222839      -1.967664938229905E-028  1.085449925079440E-029
  -68.3744693294578      -4.359695959994985E-028  4.989515185225161E-028
  -67.5840130366317       1.138294136827768E-028  2.262912264139836E-027
  -66.7935567438056       5.675185457908239E-027  5.528993836508999E-027
  -66.0031004509795       2.840120517929626E-026  9.792734669015072E-028
  -65.2126441581534       7.976588885548496E-026 -6.763450398849786E-026
  -64.4221878653272       4.724516036987104E-026 -3.911667569911749E-025
  -63.6317315725012      -9.098818604479171E-025 -1.208693163779816E-024
  -62.8412752796751      -5.829225795262629E-024 -7.915196619752831E-025
  -62.0508189868490      -1.779391702838983E-023  1.455328996313156E-023
  -61.2603626940229      -2.879264676168697E-024  8.947506896842034E-023
  -60.4699064011968       2.597380349803087E-022  2.264034308688309E-022
  -59.6794501083707       1.274558233732680E-021 -2.588516378232024E-022
  -58.8889938155445       1.972896286510030E-021 -4.356179099227894E-021
  -58.0985375227184      -8.804365345751309E-021 -1.458605129451527E-020
  -57.3080812298923      -5.854182311163459E-020 -2.446725695655364E-021
  -56.5176249370662      -1.119739085502779E-019  1.585433515176132E-019
  -55.7271686442401       2.344841767960053E-019  5.728407974510711E-019
  -54.9367123514140       1.871501266078161E-018  3.377247492604419E-019
  -54.1462560585879       3.845537533034277E-018 -4.126434393395012E-018
  -53.3557997657618      -3.856693781278445E-018 -1.573276542124946E-017
  -52.5653434729357      -4.244611461450944E-017 -1.556095237783742E-017
  -51.7748871801096      -1.006242332805723E-016  7.095793335339392E-017
  -50.9844308872835      -1.681917832534192E-018  3.286626218833822E-016
  -50.1939745944574       6.936480388501480E-016  5.142813341204209E-016
  -49.4035183016313       2.149048058907893E-015 -6.368338950946534E-016
  -48.6130620088052       2.062192477502829E-015 -5.384509310231812E-015
  -47.8226057159791      -7.643607403329310E-015 -1.259032002386209E-014
  -47.0321494231530      -3.714155611428326E-014 -4.302899410102831E-015
  -46.2416931303269      -6.586982902319779E-014  6.742303507692377E-014
  -45.4512368375008       3.399887186807224E-014  2.330090958495618E-013
  -44.6607805446747       5.103491396553053E-013  2.776198962460406E-013
  -43.8703242518486       1.275175442057624E-012 -6.004096896462348E-013
  -43.0798679590225       6.057042226552172E-013 -3.290728708976675E-012
  -42.2894116661964      -5.414462344944281E-012 -5.525132333421328E-012
  -41.4989553733703      -1.710579273632964E-011  2.880623929874732E-012
  -40.7084990805442      -1.607549185584550E-011  3.401104702226473E-011
  -39.9180427877181       3.881851385199814E-011  6.858227659709519E-011
  -39.1275864948920       1.586031585560925E-010  1.772295986417761E-011
  -38.3371302020659       2.148619864279341E-010 -2.279883968836587E-010
  -37.5466739092398      -8.787518783998433E-011 -5.923685215591233E-010
  -36.7562176164137      -9.575455765272059E-010 -5.837595740397821E-010
  -35.9657613235876      -1.979583760078543E-009  6.115852710889961E-010
  -35.1753050307615      -1.664801968802724E-009  3.420974540002135E-009
  -34.3848487379354       2.322592135142411E-009  6.597423135387394E-009
  -33.5943924451093       1.158945752098022E-008  5.797783232526603E-009
  -32.8039361522832       2.333489856601326E-008 -6.889512511085550E-009
  -32.0134798594571       2.403961095409493E-008 -3.978413597579648E-008
  -31.2230235666310      -1.741414056645911E-008 -8.889423982511890E-008
  -30.4325672738049      -1.450129301958398E-007 -1.069436550825363E-007
  -29.6421109809788      -3.627836756408318E-007  4.360990355581923E-008
  -28.8516546881527      -4.705849064663993E-007  5.880019010097134E-007
  -28.0611983953266       2.032280136402231E-007  1.556701076095578E-006
  -27.2707421025005       2.710651598910409E-006  1.860070405864774E-006
  -26.4802858096744       6.595122136632054E-006 -1.880704391110902E-006
  -25.6898295168483       5.121429008935537E-006 -1.315302433313556E-005
  -24.8993732240222      -1.585726088918676E-005 -2.351188399555453E-005
  -24.1089169311961      -5.499872514065853E-005  1.541233465200157E-006
  -23.3184606383700      -4.904623722186690E-005  8.943154328143322E-005
  -22.5280043455439       9.619067590307017E-005  1.509641316311664E-004
  -21.7375480527178       2.942423484524835E-004 -2.441352024714634E-005
  -20.9470917598917       1.761202559458899E-004 -4.202372927639646E-004
  -20.1566354670656      -4.160487234517687E-004 -5.087146240085815E-004
  -19.3661791742395      -8.746100686831273E-004  1.541455432419962E-004
  -18.5757228814134      -4.116783142171038E-004  1.053952035346777E-003
  -17.7852665885873       7.800137959400325E-004  1.129107515663459E-003
  -16.9948102957612       1.602629742557439E-003  7.209233437459721E-005
  -16.2043540029351       1.257034178893903E-003 -1.335154372484789E-003
  -15.4138977101090      -8.937677249163899E-005 -2.079638715078121E-003
  -14.6234414172829      -1.678073274988873E-003 -1.691713296547066E-003
  -13.8329851244568      -2.775557911093191E-003 -2.917575046649583E-004
  -13.0425288316307      -2.912512669261523E-003  1.728970403354360E-003
  -12.2520725388046      -1.780870764303154E-003  3.917058056948080E-003
  -11.4616162459785       9.396146487678921E-004  5.686241701139085E-003
  -10.6711599531524       5.580757341759169E-003  5.967700811761244E-003
  -9.88070366032627       1.197767992751838E-002  2.639605686442306E-003
  -9.09024736750017       1.778506135565595E-002 -7.835819469490069E-003
  -8.29979107467407       1.487472945866020E-002 -2.866447902637901E-002
  -7.50933478184796      -1.418984025140072E-002 -5.388444489770176E-002
  -6.71887848902186      -8.618512280298142E-002 -4.780697426293633E-002
  -5.92842219619576      -0.163405199898942       6.525246546582766E-002
  -5.13796590336966      -6.787682004585532E-002  0.304092285254695     
  -4.34750961054356       0.399214980260640       0.359331471002662     
  -3.55705331771746       0.811785731945471      -0.350930500853032     
  -2.76659702489135      -7.390462020701614E-002  -1.36372866984443     
  -1.97614073206525       -1.89219516570622      -0.453770044747353     
  -1.18568443923915       -1.15613420684555        2.24330905860819     
 -0.395228146413051        2.28421971092540        1.86879914815995     
  0.395228146413051        2.28421971092540       -1.86879914815995     
   1.18568443923915       -1.15613420684555       -2.24330905860819     
   1.97614073206525       -1.89219516570622       0.453770044747353     
   2.76659702489135      -7.390462020701614E-002   1.36372866984443     
   3.55705331771746       0.811785731945471       0.350930500853032     
   4.34750961054356       0.399214980260640      -0.359331471002662     
   5.13796590336966      -6.787682004585532E-002 -0.304092285254695     
   5.92842219619576      -0.163405199898942      -6.525246546582766E-002
   6.71887848902186      -8.618512280298142E-002  4.780697426293633E-002
   7.50933478184796      -1.418984025140072E-002  5.388444489770176E-002
   8.29979107467407       1.487472945866020E-002  2.866447902637901E-002
   9.09024736750017       1.778506135565595E-002  7.835819469490069E-003
   9.88070366032627       1.197767992751838E-002 -2.639605686442306E-003
   10.6711599531524       5.580757341759169E-003 -5.967700811761244E-003
   11.4616162459785       9.396146487678921E-004 -5.686241701139085E-003
   12.2520725388046      -1.780870764303154E-003 -3.917058056948080E-003
   13.0425288316307      -2.912512669261523E-003 -1.728970403354360E-003
   13.8329851244568      -2.775557911093191E-003  2.917575046649583E-004
   14.6234414172829      -1.678073274988873E-003  1.691713296547066E-003
   15.4138977101090      -8.937677249163899E-005  2.079638715078121E-003
   16.2043540029351       1.257034178893903E-003  1.335154372484789E-003
   16.9948102957612       1.602629742557439E-003 -7.209233437459721E-005
   17.7852665885873       7.800137959400325E-004 -1.129107515663459E-003
   18.5757228814134      -4.116783142171038E-004 -1.053952035346777E-003
   19.3661791742395      -8.746100686831273E-004 -1.541455432419962E-004
   20.1566354670656      -4.160487234517687E-004  5.087146240085815E-004
   20.9470917598917       1.761202559458899E-004  4.202372927639646E-004
   21.7375480527178       2.942423484524835E-004  2.441352024714634E-005
   22.5280043455439       9.619067590307017E-005 -1.509641316311664E-004
   23.3184606383700      -4.904623722186690E-005 -8.943154328143322E-005
   24.1089169311961      -5.499872514065853E-005 -1.541233465200157E-006
   24.8993732240222      -1.585726088918676E-005  2.351188399555453E-005
   25.6898295168483       5.121429008935537E-006  1.315302433313556E-005
   26.4802858096744       6.595122136632054E-006  1.880704391110902E-006
   27.2707421025005       2.710651598910409E-006 -1.860070405864774E-006
   28.0611983953266       2.032280136402231E-007 -1.556701076095578E-006
   28.8516546881527      -4.705849064663993E-007 -5.880019010097134E-007
   29.6421109809788      -3.627836756408318E-007 -4.360990355581923E-008
   30.4325672738049      -1.450129301958398E-007  1.069436550825363E-007
   31.2230235666310      -1.741414056645911E-008  8.889423982511890E-008
   32.0134798594571       2.403961095409493E-008  3.978413597579648E-008
   32.8039361522832       2.333489856601326E-008  6.889512511085550E-009
   33.5943924451093       1.158945752098022E-008 -5.797783232526603E-009
   34.3848487379354       2.322592135142411E-009 -6.597423135387394E-009
   35.1753050307615      -1.664801968802724E-009 -3.420974540002135E-009
   35.9657613235876      -1.979583760078543E-009 -6.115852710889961E-010
   36.7562176164137      -9.575455765272059E-010  5.837595740397821E-010
   37.5466739092398      -8.787518783998433E-011  5.923685215591233E-010
   38.3371302020659       2.148619864279341E-010  2.279883968836587E-010
   39.1275864948920       1.586031585560925E-010 -1.772295986417761E-011
   39.9180427877181       3.881851385199814E-011 -6.858227659709519E-011
   40.7084990805442      -1.607549185584550E-011 -3.401104702226473E-011
   41.4989553733703      -1.710579273632964E-011 -2.880623929874732E-012
   42.2894116661964      -5.414462344944281E-012  5.525132333421328E-012
   43.0798679590225       6.057042226552172E-013  3.290728708976675E-012
   43.8703242518486       1.275175442057624E-012  6.004096896462348E-013
   44.6607805446747       5.103491396553053E-013 -2.776198962460406E-013
   45.4512368375008       3.399887186807224E-014 -2.330090958495618E-013
   46.2416931303269      -6.586982902319779E-014 -6.742303507692377E-014
   47.0321494231530      -3.714155611428326E-014  4.302899410102831E-015
   47.8226057159791      -7.643607403329310E-015  1.259032002386209E-014
   48.6130620088052       2.062192477502829E-015  5.384509310231812E-015
   49.4035183016313       2.149048058907893E-015  6.368338950946534E-016
   50.1939745944574       6.936480388501480E-016 -5.142813341204209E-016
   50.9844308872835      -1.681917832534192E-018 -3.286626218833822E-016
   51.7748871801096      -1.006242332805723E-016 -7.095793335339392E-017
   52.5653434729357      -4.244611461450944E-017  1.556095237783742E-017
   53.3557997657618      -3.856693781278445E-018  1.573276542124946E-017
   54.1462560585879       3.845537533034277E-018  4.126434393395012E-018
   54.9367123514140       1.871501266078161E-018 -3.377247492604419E-019
   55.7271686442401       2.344841767960053E-019 -5.728407974510711E-019
   56.5176249370662      -1.119739085502779E-019 -1.585433515176132E-019
   57.3080812298923      -5.854182311163459E-020  2.446725695655364E-021
   58.0985375227184      -8.804365345751309E-021  1.458605129451527E-020
   58.8889938155446       1.972896286510030E-021  4.356179099227894E-021
   59.6794501083707       1.274558233732680E-021  2.588516378232024E-022
   60.4699064011968       2.597380349803087E-022 -2.264034308688309E-022
   61.2603626940229      -2.879264676168697E-024 -8.947506896842034E-023
   62.0508189868490      -1.779391702838983E-023 -1.455328996313156E-023
   62.8412752796751      -5.829225795262629E-024  7.915196619752831E-025
   63.6317315725012      -9.098818604479171E-025  1.208693163779816E-024
   64.4221878653273       4.724516036987104E-026  3.911667569911749E-025
   65.2126441581534       7.976588885548496E-026  6.763450398849786E-026
   66.0031004509795       2.840120517929626E-026 -9.792734669015072E-028
   66.7935567438056       5.675185457908239E-027 -5.528993836508999E-027
   67.5840130366317       1.138294136827768E-028 -2.262912264139836E-027
   68.3744693294578      -4.359695959994985E-028 -4.989515185225161E-028
   69.1649256222839      -1.967664938229905E-028 -1.085449925079440E-029
   69.9553819151100      -4.209894306542041E-029  4.156210679009539E-029
   70.7458382079361       1.492036923657727E-030  1.769704778789487E-029
   71.5362945007622       4.453949255488748E-030  2.830031010765721E-030
   72.3267507935883       1.414315318809672E-030 -5.973122722183249E-031
   73.1172070864144       7.015886691972286E-032 -4.270411289757849E-031
   73.9076633792405      -9.047019022904391E-032 -7.426517792208168E-032
   74.6981196720666      -2.786087561457036E-032  1.145054816857073E-032
   75.4885759648927      -5.950856156427143E-034  7.303804635204446E-033
   76.2790322577188       1.438902184972216E-033  8.631723832411583E-034
   77.0694885505449       3.033381542477942E-034 -1.956166389968323E-034
   77.8599448433710      -7.672967014778271E-036 -7.258563449445057E-035
   78.6504011361971      -1.291458936526065E-035 -5.197435653629142E-036
   79.4408574290232      -1.974219945961904E-036  1.564091532088748E-036
   80.2313137218493       4.928622743745567E-038  4.329563003735772E-037
   81.0217700146754       6.430380254985085E-038  3.412919991005124E-038
   81.8122263075015       1.077923714071050E-038 -4.986064503099174E-039
   82.6026826003276       5.024328231636778E-040 -1.847471886947922E-039
   83.3931388931537      -1.637621446948606E-040 -2.615783015705952E-040
   84.1835951859798      -4.898506904781239E-041 -1.140253106306613E-041
   84.9740514788059      -7.263016591270281E-042  4.153672028089754E-042
   85.7645077716320      -4.608568731530228E-043  1.355192574853790E-042
   86.5549640644581       9.443574997984880E-044  2.347613070323095E-043
   87.3454203572842       4.109196823770956E-044  2.134078660435746E-044
   88.1358766501103       8.502868933226542E-045 -2.097233352107581E-045
   88.9263329429364       9.411972286352804E-046 -1.420970676115889E-045
   89.7167892357625      -6.472308846813177E-047 -3.326005973126748E-046
   90.5072455285886      -5.773623946512143E-047 -3.621319312869299E-047
   91.2977018214147      -1.308265490763073E-047  4.114033273514438E-048
   92.0881581142408      -9.417621155339917E-049  2.559858555217001E-048
   92.8786144070669       3.029722984569492E-049  4.344367777013966E-049
   93.6690706998930       9.916086503862518E-050 -4.343147649450009E-051
   94.4595269927191       8.265598501521710E-051 -1.572840479792235E-050
   95.2499832855452      -1.671743340929869E-051 -2.507021781254810E-051
   96.0404395783713      -4.785168539218325E-052  5.168843089505518E-053
   96.8308958711974      -2.584002908271946E-053  6.739529049667719E-053
   97.6213521640235       6.744265385680699E-054  7.599632068236017E-054
   98.4118084568496       1.310598435223161E-054 -3.072954181665812E-055
   99.2022647496757       4.865664826698234E-056 -1.615772202386740E-055
   99.9927210425018      -1.328726966326982E-056 -1.517385073402455E-056
   100.783177335328      -2.305105565031545E-057  2.708085929727681E-058
   101.573633628154      -1.320794808668956E-058  2.239512813387627E-058
   102.364089920980       9.540965442914037E-060  2.705767242579058E-059
   103.154546213806       2.897376637475010E-060  1.251383190937114E-060
   103.945002506632       3.259702511315327E-061 -1.274986440459127E-061
   104.735458799458       1.733720554104734E-062 -3.552155701743446E-062
   105.525915092285      -1.188232802285137E-063 -4.424761620980948E-063
   106.316371385111      -4.496549299987838E-064 -3.133355001111369E-064
   107.106827677937      -6.758240475670939E-065  5.870149048777814E-066
   107.897283970763      -6.114962067494472E-066  6.165743275968661E-066
   108.687740263589      -6.752369076098194E-068  1.143569599178466E-066
   109.478196556415       9.887288583777842E-068  1.190313484029548E-067
   110.268652849241       2.113362846348324E-068  1.847908679981154E-069
   111.059109142067       2.142137496295387E-069 -1.985316544881465E-069
   111.849565434893      -2.331944254265486E-071 -3.984100863043120E-070
   112.640021727719      -4.463563644023130E-071 -2.946007250590259E-071
   113.430478020546      -6.427852526336855E-072  2.639032684552583E-072
   114.220934313372      -1.466556622489684E-073  8.539195754432991E-073
   115.011390606198       7.867133008959736E-074  6.622195210295819E-074
   115.801846899024       1.080161614338648E-074 -4.087647763930598E-075
   116.592303191850       1.684132620627200E-076 -1.211893239460247E-075
   117.382759484676      -9.807260523338759E-077 -7.294834861741125E-077
   118.173215777502      -1.054926680080613E-077  4.680094153730550E-078
   118.963672070328      -1.218722728997765E-079  1.027759698026163E-078
   119.754128363154       6.882872962591160E-080  5.606062123299677E-080
   120.544584655980       7.047503833833239E-081 -2.071460339617326E-081
   121.335040948807       2.059054158182989E-082 -5.552322563123158E-082
   122.125497241633      -2.391462507692116E-083 -4.045318422765941E-083
   122.915953534459      -3.643983038890697E-084 -6.904572432439077E-085
   123.706409827285      -2.380422970702398E-085  1.724183582861217E-085
   124.496866120111      -3.739170348659409E-087  2.328968298232882E-086
   125.287322412937       1.096327753901870E-087  1.587975789292390E-087
   126.077778705763       1.579220545217194E-088  3.446337066847013E-089
   126.868234998589       1.194587045331750E-089 -7.088024543981857E-090
   127.658691291415       3.329032953283247E-091 -1.177454945492047E-090
   128.449147584241      -5.315133877181545E-092 -9.642238500827061E-092
   129.239603877068      -9.722499811422433E-093 -2.576566966007380E-093
   130.030060169894      -7.714572708545896E-094  5.106507448175750E-094
   130.820516462720      -8.609217112026188E-096  8.439654583530454E-095
   131.610972755546       5.637460064491994E-096  5.202541286198443E-096
   132.401429048372       6.596530458956038E-097 -1.501187104027894E-097
   133.191885341198       1.918910915737997E-098 -5.428955346767723E-098
   133.982341634024      -3.017764850221057E-099 -3.586416853275083E-099
   134.772797926850      -3.556697523171808E-100  6.899556823885989E-101
   135.563254219676      -7.883512944209884E-102  2.526653920416180E-101
   136.353710512502       1.279550831864084E-102  1.299636095196657E-102
   137.144166805329       1.140128810055632E-103 -3.273763850180270E-104
   137.934623098155       1.704737786050366E-105 -7.104082814868106E-105
   138.725079390981      -3.056696616309410E-106 -3.002183263877491E-106
   139.515535683807      -2.351483074227623E-107  5.279450624158258E-108
   140.305991976633      -4.988556477914994E-109  1.212952382257654E-108
   141.096448269459       3.520234515280525E-110  6.015632321658455E-110
   141.886904562285       3.604035810753314E-111  5.896003188669439E-112
   142.677360855111       1.482420159692728E-112 -1.195004172666887E-112
   143.467817147937       8.591219364317466E-115 -9.926499136035785E-114
   144.258273440764      -3.358498648402007E-115 -4.062231322575179E-115
   145.048729733590      -2.813180353879187E-116 -3.513966900728430E-117
   145.839186026416      -1.268234109932725E-117  9.023285848808603E-118
   146.629642319242      -1.852002421894803E-119  8.538745134885574E-119
   147.420098612068       2.537157186232540E-120  4.322631981147916E-120
   148.210554904894       2.815025646618474E-121  8.129331401835470E-122
   149.001011197720       1.523864858129077E-122 -8.332226898074163E-123
   149.791467490546       2.662478659642498E-124 -1.001924745510988E-123
   150.581923783372      -3.411278845900054E-125 -5.152965532476723E-125
   151.372380076198      -3.624888848576880E-126 -3.834841110245402E-127
   152.162836369024      -1.451258421232711E-127  1.528207690260784E-127
   152.953292661851       2.241109120389171E-129  1.162329233201652E-128
   153.743748954677       5.898989839472016E-130  2.504881921218838E-130
   154.534205247503       2.744373275088760E-131 -1.875454344696387E-131
   155.324661540329      -7.307533531607730E-134 -1.643248119120231E-132
   156.115117833155      -6.787957211467237E-134 -3.742898092448830E-134
   156.905574125981      -3.024383550204028E-135  1.721190850420301E-135
   157.696030418807      -5.993702678098287E-138  1.490363079210398E-136
   158.486486711633       5.016895175632874E-138  3.517951899007387E-138
   159.276943004459       2.259930689459604E-139 -8.768727386200095E-140
   160.067399297286       2.197608992822998E-141 -9.020013016595555E-141
   160.857855590112      -2.234915551646474E-142 -2.640960205115417E-142
   161.648311882938      -1.258316931589529E-143  6.758630323040893E-145
   162.438768175764      -2.584049533652824E-145  3.685509651372379E-145
   163.229224468590       4.387389690022330E-147  1.517559611340964E-146
   164.019680761416       5.007667874201666E-148  2.144397568631000E-148
   164.810137054242       1.636195667353400E-149 -8.456638894250200E-150
   165.600593347068       1.267261461781580E-151 -5.942705090679217E-151
   166.391049639894      -1.220880922542806E-152 -1.508005919033398E-152
   167.181505932720      -5.921530764529179E-154  7.048501555470704E-156
   167.971962225547      -1.014483527920052E-155  1.357800172562012E-155
   168.762418518373       1.275024917648474E-157  4.225030187959325E-157
   169.552874811199       9.395521192794119E-159  3.159374201903117E-159
   170.343331104025       1.369456979441674E-160 -1.034238551273257E-160
   171.133787396851      -1.015295015103234E-163 -1.617512154579026E-162
   171.924243689677      -7.929059980561018E-191 -4.438021258234997E-191
