  32262.1600     0.36943E+02 
  32302.4877     0.38040E+02 
  32342.8154     0.39174E+02 
  32383.1431     0.40347E+02 
  32423.4708     0.41560E+02 
  32463.7985     0.42813E+02 
  32504.1262     0.44110E+02 
  32544.4539     0.45452E+02 
  32584.7816     0.46840E+02 
  32625.1093     0.48277E+02 
  32665.4370     0.49764E+02 
  32705.7647     0.51303E+02 
  32746.0924     0.52897E+02 
  32786.4201     0.54549E+02 
  32826.7478     0.56259E+02 
  32867.0755     0.58031E+02 
  32907.4032     0.59868E+02 
  32947.7309     0.61772E+02 
  32988.0586     0.63746E+02 
  33028.3863     0.65793E+02 
  33068.7140     0.67917E+02 
  33109.0417     0.70120E+02 
  33149.3694     0.72406E+02 
  33189.6971     0.74779E+02 
  33230.0248     0.77243E+02 
  33270.3525     0.79803E+02 
  33310.6802     0.82461E+02 
  33351.0079     0.85223E+02 
  33391.3356     0.88095E+02 
  33431.6633     0.91079E+02 
  33471.9910     0.94184E+02 
  33512.3187     0.97412E+02 
  33552.6464     0.10077E+03 
  33592.9741     0.10427E+03 
  33633.3018     0.10791E+03 
  33673.6295     0.11170E+03 
  33713.9572     0.11565E+03 
  33754.2849     0.11977E+03 
  33794.6126     0.12406E+03 
  33834.9403     0.12854E+03 
  33875.2680     0.13321E+03 
  33915.5957     0.13808E+03 
  33955.9234     0.14316E+03 
  33996.2511     0.14847E+03 
  34036.5788     0.15402E+03 
  34076.9065     0.15982E+03 
  34117.2342     0.16588E+03 
  34157.5619     0.17223E+03 
  34197.8896     0.17886E+03 
  34238.2173     0.18580E+03 
  34278.5450     0.19308E+03 
  34318.8727     0.20070E+03 
  34359.2004     0.20869E+03 
  34399.5281     0.21706E+03 
  34439.8558     0.22585E+03 
  34480.1835     0.23507E+03 
  34520.5112     0.24476E+03 
  34560.8389     0.25494E+03 
  34601.1666     0.26564E+03 
  34641.4943     0.27690E+03 
  34681.8220     0.28874E+03 
  34722.1497     0.30122E+03 
  34762.4774     0.31436E+03 
  34802.8051     0.32822E+03 
  34843.1328     0.34284E+03 
  34883.4605     0.35828E+03 
  34923.7882     0.37458E+03 
  34964.1159     0.39182E+03 
  35004.4436     0.41005E+03 
  35044.7713     0.42935E+03 
  35085.0990     0.44980E+03 
  35125.4267     0.47148E+03 
  35165.7544     0.49448E+03 
  35206.0821     0.51891E+03 
  35246.4098     0.54487E+03 
  35286.7375     0.57249E+03 
  35327.0652     0.60190E+03 
  35367.3929     0.63324E+03 
  35407.7206     0.66668E+03 
  35448.0483     0.70239E+03 
  35488.3760     0.74057E+03 
  35528.7037     0.78143E+03 
  35569.0314     0.82522E+03 
  35609.3591     0.87218E+03 
  35649.6868     0.92263E+03 
  35690.0145     0.97689E+03 
  35730.3422     0.10353E+04 
  35770.6699     0.10983E+04 
  35810.9976     0.11664E+04 
  35851.3253     0.12400E+04 
  35891.6530     0.13197E+04 
  35931.9807     0.14063E+04 
  35972.3084     0.15004E+04 
  36012.6361     0.16028E+04 
  36052.9638     0.17146E+04 
  36093.2915     0.18369E+04 
  36133.6192     0.19708E+04 
  36173.9469     0.21178E+04 
  36214.2746     0.22797E+04 
  36254.6023     0.24582E+04 
  36294.9300     0.26557E+04 
  36335.2577     0.28747E+04 
  36375.5854     0.31182E+04 
  36415.9131     0.33898E+04 
  36456.2408     0.36936E+04 
  36496.5685     0.40345E+04 
  36536.8962     0.44183E+04 
  36577.2239     0.48519E+04 
  36617.5516     0.53433E+04 
  36657.8793     0.59021E+04 
  36698.2070     0.65399E+04 
  36738.5347     0.72701E+04 
  36778.8624     0.81086E+04 
  36819.1901     0.90740E+04 
  36859.5178     0.10187E+05 
  36899.8455     0.11472E+05 
  36940.1732     0.12953E+05 
  36980.5009     0.14655E+05 
  37020.8286     0.16597E+05 
  37061.1563     0.18788E+05 
  37101.4840     0.21215E+05 
  37141.8117     0.23837E+05 
  37182.1394     0.26568E+05 
  37222.4671     0.29277E+05 
  37262.7948     0.31791E+05 
  37303.1225     0.33918E+05 
  37343.4502     0.35473E+05 
  37383.7779     0.36306E+05 
  37424.1056     0.36329E+05 
  37464.4333     0.35516E+05 
  37504.7610     0.33908E+05 
  37545.0887     0.31594E+05 
  37585.4164     0.28696E+05 
  37625.7441     0.25361E+05 
  37666.0718     0.21751E+05 
  37706.3995     0.18041E+05 
  37746.7272     0.14418E+05 
  37787.0549     0.11067E+05 
  37827.3826     0.81567E+04 
  37867.7103     0.58145E+04 
  37908.0380     0.41088E+04 
  37948.3657     0.30405E+04 
  37988.6934     0.25458E+04 
  38029.0211     0.25113E+04 
  38069.3488     0.27952E+04 
  38109.6765     0.32520E+04 
  38150.0042     0.37555E+04 
  38190.3319     0.42175E+04 
  38230.6596     0.45978E+04 
  38270.9873     0.49070E+04 
  38311.3150     0.52009E+04 
  38351.6427     0.55700E+04 
  38391.9704     0.61242E+04 
  38432.2981     0.69758E+04 
  38472.6258     0.82213E+04 
  38512.9535     0.99268E+04 
  38553.2812     0.12116E+05 
  38593.6089     0.14763E+05 
  38633.9366     0.17794E+05 
  38674.2643     0.21091E+05 
  38714.5920     0.24506E+05 
  38754.9197     0.27882E+05 
  38795.2474     0.31073E+05 
  38835.5751     0.33959E+05 
  38875.9028     0.36451E+05 
  38916.2305     0.38496E+05 
  38956.5582     0.40061E+05 
  38996.8859     0.41123E+05 
  39037.2136     0.41665E+05 
  39077.5413     0.41678E+05 
  39117.8690     0.41171E+05 
  39158.1967     0.40179E+05 
  39198.5244     0.38772E+05 
  39238.8521     0.37040E+05 
  39279.1798     0.35086E+05 
  39319.5075     0.33001E+05 
  39359.8352     0.30849E+05 
  39400.1629     0.28660E+05 
  39440.4906     0.26442E+05 
  39480.8183     0.24189E+05 
  39521.1460     0.21909E+05 
  39561.4737     0.19626E+05 
  39601.8014     0.17388E+05 
  39642.1291     0.15258E+05 
  39682.4568     0.13302E+05 
  39722.7845     0.11578E+05 
  39763.1122     0.10129E+05 
  39803.4399     0.89730E+04 
  39843.7676     0.81104E+04 
  39884.0953     0.75225E+04 
  39924.4230     0.71796E+04 
  39964.7507     0.70471E+04 
  40005.0784     0.70909E+04 
  40045.4061     0.72818E+04 
  40085.7338     0.75976E+04 
  40126.0615     0.80250E+04 
  40166.3892     0.85576E+04 
  40206.7169     0.91962E+04 
  40247.0446     0.99449E+04 
  40287.3723     0.10808E+05 
  40327.7000     0.11787E+05 
  40368.0277     0.12874E+05 
  40408.3554     0.14052E+05 
  40448.6831     0.15291E+05 
  40489.0108     0.16549E+05 
  40529.3385     0.17784E+05 
  40569.6662     0.18950E+05 
  40609.9939     0.20012E+05 
  40650.3216     0.20943E+05 
  40690.6493     0.21723E+05 
  40730.9770     0.22338E+05 
  40771.3047     0.22773E+05 
  40811.6324     0.23012E+05 
  40851.9601     0.23042E+05 
  40892.2878     0.22856E+05 
  40932.6155     0.22461E+05 
  40972.9432     0.21877E+05 
  41013.2709     0.21142E+05 
  41053.5986     0.20299E+05 
  41093.9263     0.19395E+05 
  41134.2540     0.18466E+05 
  41174.5817     0.17536E+05 
  41214.9094     0.16620E+05 
  41255.2371     0.15721E+05 
  41295.5648     0.14839E+05 
  41335.8925     0.13978E+05 
  41376.2202     0.13143E+05 
  41416.5479     0.12342E+05 
  41456.8756     0.11587E+05 
  41497.2033     0.10891E+05 
  41537.5310     0.10265E+05 
  41577.8587     0.97174E+04 
  41618.1864     0.92526E+04 
  41658.5141     0.88722E+04 
  41698.8418     0.85749E+04 
  41739.1695     0.83566E+04 
  41779.4972     0.82117E+04 
  41819.8249     0.81334E+04 
  41860.1526     0.81144E+04 
  41900.4803     0.81473E+04 
  41940.8080     0.82249E+04 
  41981.1357     0.83402E+04 
  42021.4634     0.84874E+04 
  42061.7911     0.86610E+04 
  42102.1188     0.88558E+04 
  42142.4465     0.90658E+04 
  42182.7742     0.92837E+04 
  42223.1019     0.95010E+04 
  42263.4296     0.97077E+04 
  42303.7573     0.98945E+04 
  42344.0850     0.10054E+05 
  42384.4127     0.10180E+05 
  42424.7404     0.10272E+05 
  42465.0681     0.10328E+05 
  42505.3958     0.10350E+05 
  42545.7235     0.10336E+05 
  42586.0512     0.10287E+05 
  42626.3789     0.10199E+05 
  42666.7066     0.10071E+05 
  42707.0343     0.99036E+04 
  42747.3620     0.96990E+04 
  42787.6897     0.94633E+04 
  42828.0174     0.92041E+04 
  42868.3451     0.89299E+04 
  42908.6728     0.86484E+04 
  42949.0005     0.83657E+04 
  42989.3282     0.80860E+04 
  43029.6559     0.78120E+04 
  43069.9836     0.75451E+04 
  43110.3113     0.72870E+04 
  43150.6390     0.70387E+04 
  43190.9667     0.68021E+04 
  43231.2944     0.65785E+04 
  43271.6221     0.63698E+04 
  43311.9498     0.61773E+04 
  43352.2775     0.60020E+04 
  43392.6052     0.58446E+04 
  43432.9329     0.57051E+04 
  43473.2606     0.55830E+04 
  43513.5883     0.54778E+04 
  43553.9160     0.53879E+04 
  43594.2437     0.53123E+04 
  43634.5714     0.52490E+04 
  43674.8991     0.51969E+04 
  43715.2268     0.51536E+04 
  43755.5545     0.51179E+04 
  43795.8822     0.50883E+04 
  43836.2099     0.50636E+04 
  43876.5376     0.50428E+04 
  43916.8653     0.50246E+04 
  43957.1930     0.50078E+04 
  43997.5207     0.49905E+04 
  44037.8484     0.49715E+04 
  44078.1761     0.49492E+04 
  44118.5038     0.49225E+04 
  44158.8315     0.48909E+04 
  44199.1592     0.48545E+04 
  44239.4869     0.48135E+04 
  44279.8146     0.47687E+04 
  44320.1423     0.47201E+04 
  44360.4700     0.46685E+04 
  44400.7977     0.46136E+04 
  44441.1254     0.45558E+04 
  44481.4531     0.44951E+04 
  44521.7808     0.44321E+04 
  44562.1085     0.43678E+04 
  44602.4362     0.43031E+04 
  44642.7639     0.42392E+04 
  44683.0916     0.41773E+04 
  44723.4193     0.41182E+04 
  44763.7470     0.40629E+04 
  44804.0747     0.40118E+04 
  44844.4024     0.39656E+04 
  44884.7301     0.39246E+04 
  44925.0578     0.38894E+04 
  44965.3855     0.38603E+04 
  45005.7132     0.38379E+04 
  45046.0409     0.38226E+04 
  45086.3686     0.38149E+04 
  45126.6963     0.38154E+04 
  45167.0240     0.38244E+04 
  45207.3517     0.38425E+04 
  45247.6794     0.38703E+04 
  45288.0071     0.39084E+04 
  45328.3348     0.39573E+04 
  45368.6625     0.40180E+04 
  45408.9902     0.40912E+04 
  45449.3179     0.41780E+04 
  45489.6456     0.42797E+04 
  45529.9733     0.43978E+04 
  45570.3010     0.45343E+04 
  45610.6287     0.46914E+04 
  45650.9564     0.48716E+04 
  45691.2841     0.50781E+04 
  45731.6118     0.53142E+04 
  45771.9395     0.55838E+04 
  45812.2672     0.58909E+04 
  45852.5949     0.62397E+04 
  45892.9226     0.66342E+04 
  45933.2503     0.70770E+04 
  45973.5780     0.75688E+04 
  46013.9057     0.81056E+04 
  46054.2334     0.86766E+04 
  46094.5611     0.92605E+04 
  46134.8888     0.98226E+04 
  46175.2165     0.10314E+05 
  46215.5442     0.10677E+05 
  46255.8719     0.10851E+05 
  46296.1996     0.10792E+05 
  46336.5273     0.10486E+05 
  46376.8550     0.99472E+04 
  46417.1827     0.92206E+04 
  46457.5104     0.83622E+04 
  46497.8381     0.74284E+04 
  46538.1658     0.64690E+04 
  46578.4935     0.55248E+04 
  46618.8212     0.46319E+04 
  46659.1489     0.38261E+04 
  46699.4766     0.31475E+04 
  46739.8043     0.26397E+04 
  46780.1320     0.23428E+04 
  46820.4597     0.22814E+04 
  46860.7874     0.24535E+04 
  46901.1151     0.28271E+04 
  46941.4428     0.33441E+04 
  46981.7705     0.39300E+04 
  47022.0982     0.45067E+04 
  47062.4259     0.50066E+04 
  47102.7536     0.53867E+04 
  47143.0813     0.56377E+04 
  47183.4090     0.57830E+04 
  47223.7367     0.58670E+04 
  47264.0644     0.59394E+04 
  47304.3921     0.60433E+04 
  47344.7198     0.62111E+04 
  47385.0475     0.64682E+04 
  47425.3752     0.68403E+04 
  47465.7029     0.73606E+04 
  47506.0306     0.80723E+04 
  47546.3583     0.90278E+04 
  47586.6860     0.10277E+05 
  47627.0137     0.11852E+05 
  47667.3414     0.13740E+05 
  47707.6691     0.15873E+05 
  47747.9968     0.18119E+05 
  47788.3245     0.20296E+05 
  47828.6522     0.22200E+05 
  47868.9799     0.23648E+05 
  47909.3076     0.24516E+05 
  47949.6353     0.24755E+05 
  47989.9630     0.24391E+05 
  48030.2907     0.23497E+05 
  48070.6184     0.22166E+05 
  48110.9461     0.20485E+05 
  48151.2738     0.18530E+05 
  48191.6015     0.16372E+05 
  48231.9292     0.14089E+05 
  48272.2569     0.11781E+05 
  48312.5846     0.95714E+04 
  48352.9123     0.76005E+04 
  48393.2400     0.59966E+04 
  48433.5677     0.48535E+04 
  48473.8954     0.42118E+04 
  48514.2231     0.40511E+04 
  48554.5508     0.42921E+04 
  48594.8785     0.48088E+04 
  48635.2062     0.54529E+04 
  48675.5339     0.60851E+04 
  48715.8616     0.66035E+04 
  48756.1893     0.69569E+04 
  48796.5170     0.71398E+04 
  48836.8447     0.71749E+04 
  48877.1724     0.70953E+04 
  48917.5001     0.69336E+04 
  48957.8278     0.67207E+04 
  48998.1555     0.64907E+04 
  49038.4832     0.62886E+04 
  49078.8109     0.61773E+04 
  49119.1386     0.62391E+04 
  49159.4663     0.65678E+04 
  49199.7940     0.72499E+04 
  49240.1217     0.83413E+04 
  49280.4494     0.98453E+04 
  49320.7771     0.11700E+05 
  49361.1048     0.13781E+05 
  49401.4325     0.15919E+05 
  49441.7602     0.17938E+05 
  49482.0879     0.19680E+05 
  49522.4156     0.21038E+05 
  49562.7433     0.21957E+05 
  49603.0710     0.22424E+05 
  49643.3987     0.22449E+05 
  49683.7264     0.22050E+05 
  49724.0541     0.21249E+05 
  49764.3818     0.20077E+05 
  49804.7095     0.18582E+05 
  49845.0372     0.16841E+05 
  49885.3649     0.14959E+05 
  49925.6926     0.13062E+05 
  49966.0203     0.11282E+05 
  50006.3480     0.97407E+04 
  50046.6757     0.85304E+04 
  50087.0034     0.77023E+04 
  50127.3311     0.72560E+04 
  50167.6588     0.71413E+04 
  50207.9865     0.72708E+04 
  50248.3142     0.75432E+04 
  50288.6419     0.78665E+04 
  50328.9696     0.81716E+04 
  50369.2973     0.84150E+04 
  50409.6250     0.85724E+04 
  50449.9527     0.86311E+04 
  50490.2804     0.85843E+04 
  50530.6081     0.84297E+04 
  50570.9358     0.81722E+04 
  50611.2635     0.78277E+04 
  50651.5912     0.74273E+04 
  50691.9189     0.70198E+04 
  50732.2466     0.66699E+04 
  50772.5743     0.64471E+04 
  50812.9020     0.64148E+04 
  50853.2297     0.66159E+04 
  50893.5574     0.70618E+04 
  50933.8851     0.77284E+04 
  50974.2128     0.85599E+04 
  51014.5405     0.94816E+04 
  51054.8682     0.10416E+05 
  51095.1959     0.11295E+05 
  51135.5236     0.12066E+05 
  51175.8513     0.12691E+05 
  51216.1790     0.13141E+05 
  51256.5067     0.13395E+05 
  51296.8344     0.13438E+05 
  51337.1621     0.13262E+05 
  51377.4898     0.12874E+05 
  51417.8175     0.12298E+05 
  51458.1452     0.11570E+05 
  51498.4729     0.10743E+05 
  51538.8006     0.98771E+04 
  51579.1283     0.90373E+04 
  51619.4560     0.82823E+04 
  51659.7837     0.76574E+04 
  51700.1114     0.71874E+04 
  51740.4391     0.68741E+04 
  51780.7668     0.67003E+04 
  51821.0945     0.66376E+04 
  51861.4222     0.66547E+04 
  51901.7499     0.67227E+04 
  51942.0776     0.68170E+04 
  51982.4053     0.69165E+04 
  52022.7330     0.70029E+04 
  52063.0607     0.70596E+04 
  52103.3884     0.70733E+04 
  52143.7161     0.70343E+04 
  52184.0438     0.69389E+04 
  52224.3715     0.67908E+04 
  52264.6992     0.66024E+04 
  52305.0269     0.63939E+04 
  52345.3546     0.61912E+04 
  52385.6823     0.60221E+04 
  52426.0100     0.59101E+04 
  52466.3377     0.58709E+04 
  52506.6654     0.59083E+04 
  52546.9931     0.60152E+04 
  52587.3208     0.61764E+04 
  52627.6485     0.63728E+04 
  52667.9762     0.65847E+04 
  52708.3039     0.67941E+04 
  52748.6316     0.69840E+04 
  52788.9593     0.71388E+04 
  52829.2870     0.72445E+04 
  52869.6147     0.72893E+04 
  52909.9424     0.72649E+04 
  52950.2701     0.71677E+04 
  52990.5978     0.69991E+04 
  53030.9255     0.67663E+04 
  53071.2532     0.64816E+04 
  53111.5809     0.61624E+04 
  53151.9086     0.58287E+04 
  53192.2363     0.55013E+04 
  53232.5640     0.51984E+04 
  53272.8917     0.49331E+04 
  53313.2194     0.47126E+04 
  53353.5471     0.45387E+04 
  53393.8748     0.44092E+04 
  53434.2025     0.43199E+04 
  53474.5302     0.42654E+04 
  53514.8579     0.42394E+04 
  53555.1856     0.42348E+04 
  53595.5133     0.42443E+04 
  53635.8410     0.42603E+04 
  53676.1687     0.42760E+04 
  53716.4964     0.42851E+04 
  53756.8241     0.42830E+04 
  53797.1518     0.42671E+04 
  53837.4795     0.42371E+04 
  53877.8072     0.41955E+04 
  53918.1349     0.41469E+04 
  53958.4626     0.40971E+04 
  53998.7903     0.40519E+04 
  54039.1180     0.40155E+04 
  54079.4457     0.39904E+04 
  54119.7734     0.39767E+04 
  54160.1011     0.39726E+04 
  54200.4288     0.39757E+04 
  54240.7565     0.39829E+04 
  54281.0842     0.39906E+04 
  54321.4119     0.39950E+04 
  54361.7396     0.39922E+04 
  54402.0673     0.39784E+04 
  54442.3950     0.39503E+04 
  54482.7227     0.39052E+04 
  54523.0504     0.38416E+04 
  54563.3781     0.37590E+04 
  54603.7058     0.36584E+04 
  54644.0335     0.35422E+04 
  54684.3612     0.34141E+04 
  54724.6889     0.32789E+04 
  54765.0166     0.31418E+04 
  54805.3443     0.30078E+04 
  54845.6720     0.28807E+04 
  54885.9997     0.27638E+04 
  54926.3274     0.26589E+04 
  54966.6551     0.25672E+04 
  55006.9828     0.24892E+04 
  55047.3105     0.24248E+04 
  55087.6382     0.23733E+04 
  55127.9659     0.23335E+04 
  55168.2936     0.23036E+04 
  55208.6213     0.22820E+04 
  55248.9490     0.22666E+04 
  55289.2767     0.22555E+04 
  55329.6044     0.22469E+04 
  55369.9321     0.22391E+04 
  55410.2598     0.22312E+04 
  55450.5875     0.22227E+04 
  55490.9152     0.22134E+04 
  55531.2429     0.22037E+04 
  55571.5706     0.21939E+04 
  55611.8983     0.21843E+04 
  55652.2260     0.21749E+04 
  55692.5537     0.21656E+04 
  55732.8814     0.21560E+04 
  55773.2091     0.21457E+04 
  55813.5368     0.21341E+04 
  55853.8645     0.21208E+04 
  55894.1922     0.21050E+04 
  55934.5199     0.20861E+04 
  55974.8476     0.20635E+04 
  56015.1753     0.20365E+04 
  56055.5030     0.20048E+04 
  56095.8307     0.19682E+04 
  56136.1584     0.19267E+04 
  56176.4861     0.18805E+04 
  56216.8138     0.18303E+04 
  56257.1415     0.17768E+04 
  56297.4692     0.17211E+04 
  56337.7969     0.16644E+04 
  56378.1246     0.16078E+04 
  56418.4523     0.15523E+04 
  56458.7800     0.14988E+04 
  56499.1077     0.14480E+04 
  56539.4354     0.14005E+04 
  56579.7631     0.13568E+04 
  56620.0908     0.13171E+04 
  56660.4185     0.12816E+04 
  56700.7462     0.12501E+04 
  56741.0739     0.12226E+04 
  56781.4016     0.11987E+04 
  56821.7293     0.11782E+04 
  56862.0570     0.11605E+04 
  56902.3847     0.11454E+04 
  56942.7124     0.11322E+04 
  56983.0401     0.11207E+04 
  57023.3678     0.11105E+04 
  57063.6955     0.11013E+04 
  57104.0232     0.10930E+04 
  57144.3509     0.10853E+04 
  57184.6786     0.10779E+04 
  57225.0063     0.10708E+04 
  57265.3340     0.10636E+04 
  57305.6617     0.10561E+04 
  57345.9894     0.10481E+04 
  57386.3171     0.10396E+04 
  57426.6448     0.10302E+04 
  57466.9725     0.10198E+04 
  57507.3002     0.10082E+04 
  57547.6279     0.99548E+03 
  57587.9556     0.98138E+03 
  57628.2833     0.96591E+03 
  57668.6110     0.94909E+03 
  57708.9387     0.93095E+03 
  57749.2664     0.91160E+03 
  57789.5941     0.89117E+03 
  57829.9218     0.86990E+03 
  57870.2495     0.84800E+03 
  57910.5772     0.82572E+03 
  57950.9049     0.80332E+03 
  57991.2326     0.78104E+03 
  58031.5603     0.75911E+03 
  58071.8880     0.73773E+03 
  58112.2157     0.71708E+03 
  58152.5434     0.69732E+03 
  58192.8711     0.67856E+03 
  58233.1988     0.66088E+03 
  58273.5265     0.64433E+03 
  58313.8542     0.62895E+03 
  58354.1819     0.61470E+03 
  58394.5096     0.60157E+03 
  58434.8373     0.58949E+03 
  58475.1650     0.57840E+03 
  58515.4927     0.56819E+03 
  58555.8204     0.55882E+03 
  58596.1481     0.55016E+03 
  58636.4758     0.54215E+03 
  58676.8035     0.53468E+03 
  58717.1312     0.52766E+03 
  58757.4589     0.52101E+03 
  58797.7866     0.51463E+03 
  58838.1143     0.50842E+03 
  58878.4420     0.50231E+03 
  58918.7697     0.49623E+03 
  58959.0974     0.49008E+03 
  58999.4251     0.48382E+03 
  59039.7528     0.47738E+03 
  59080.0805     0.47073E+03 
  59120.4082     0.46383E+03 
  59160.7359     0.45665E+03 
  59201.0636     0.44919E+03 
  59241.3913     0.44145E+03 
  59281.7190     0.43344E+03 
  59322.0467     0.42517E+03 
  59362.3744     0.41669E+03 
  59402.7021     0.40804E+03 
  59443.0298     0.39928E+03 
  59483.3575     0.39043E+03 
  59523.6852     0.38157E+03 
  59564.0129     0.37274E+03 
  59604.3406     0.36399E+03 
  59644.6683     0.35537E+03 
  59684.9960     0.34693E+03 
  59725.3237     0.33870E+03 
  59765.6514     0.33071E+03 
  59805.9791     0.32299E+03 
  59846.3068     0.31557E+03 
  59886.6345     0.30844E+03 
  59926.9622     0.30163E+03 
  59967.2899     0.29512E+03 
  60007.6176     0.28892E+03 
  60047.9453     0.28303E+03 
  60088.2730     0.27742E+03 
  60128.6007     0.27208E+03 
  60168.9284     0.26699E+03 
  60209.2561     0.26215E+03 
  60249.5838     0.25751E+03 
  60289.9115     0.25306E+03 
  60330.2392     0.24878E+03 
  60370.5669     0.24465E+03 
  60410.8946     0.24063E+03 
  60451.2223     0.23671E+03 
  60491.5500     0.23288E+03 
  60531.8777     0.22909E+03 
  60572.2054     0.22534E+03 
  60612.5331     0.22162E+03 
  60652.8608     0.21791E+03 
  60693.1885     0.21419E+03 
  60733.5162     0.21047E+03 
  60773.8439     0.20673E+03 
  60814.1716     0.20298E+03 
  60854.4993     0.19922E+03 
  60894.8270     0.19544E+03 
  60935.1547     0.19166E+03 
  60975.4824     0.18788E+03 
  61015.8101     0.18410E+03 
  61056.1378     0.18035E+03 
  61096.4655     0.17662E+03 
  61136.7932     0.17292E+03 
  61177.1209     0.16927E+03 
  61217.4486     0.16567E+03 
  61257.7763     0.16213E+03 
  61298.1040     0.15867E+03 
  61338.4317     0.15527E+03 
  61378.7594     0.15196E+03 
  61419.0871     0.14873E+03 
  61459.4148     0.14559E+03 
  61499.7425     0.14254E+03 
  61540.0702     0.13957E+03 
  61580.3979     0.13670E+03 
  61620.7256     0.13392E+03 
  61661.0533     0.13122E+03 
  61701.3810     0.12861E+03 
  61741.7087     0.12608E+03 
  61782.0364     0.12363E+03 
  61822.3641     0.12125E+03 
  61862.6918     0.11894E+03 
  61903.0195     0.11669E+03 
  61943.3472     0.11450E+03 
  61983.6749     0.11237E+03 
  62024.0026     0.11028E+03 
  62064.3303     0.10824E+03 
  62104.6580     0.10624E+03 
  62144.9857     0.10428E+03 
  62185.3134     0.10234E+03 
  62225.6411     0.10044E+03 
  62265.9688     0.98564E+02 
  62306.2965     0.96712E+02 
  62346.6242     0.94883E+02 
  62386.9519     0.93076E+02 
  62427.2796     0.91290E+02 
  62467.6073     0.89526E+02 
  62507.9350     0.87783E+02 
  62548.2627     0.86063E+02 
  62588.5904     0.84365E+02 
  62628.9181     0.82691E+02 
  62669.2458     0.81042E+02 
  62709.5735     0.79420E+02 
  62749.9012     0.77824E+02 
  62790.2289     0.76257E+02 
  62830.5566     0.74719E+02 
  62870.8843     0.73211E+02 
  62911.2120     0.71734E+02 
  62951.5397     0.70288E+02 
  62991.8674     0.68874E+02 
  63032.1951     0.67492E+02 
  63072.5228     0.66143E+02 
  63112.8505     0.64825E+02 
  63153.1782     0.63539E+02 
  63193.5059     0.62285E+02 
  63233.8336     0.61061E+02 
  63274.1613     0.59868E+02 
  63314.4890     0.58705E+02 
  63354.8167     0.57570E+02 
  63395.1444     0.56463E+02 
  63435.4721     0.55383E+02 
  63475.7998     0.54328E+02 
  63516.1275     0.53299E+02 
  63556.4552     0.52293E+02 
  63596.7829     0.51310E+02 
  63637.1106     0.50349E+02 
  63677.4383     0.49409E+02 
  63717.7660     0.48490E+02 
  63758.0937     0.47589E+02 
  63798.4214     0.46708E+02 
  63838.7491     0.45845E+02 
  63879.0768     0.44999E+02 
  63919.4045     0.44171E+02 
  63959.7322     0.43360E+02 
  64000.0599     0.42566E+02 
  64040.3876     0.41788E+02 
  64080.7153     0.41026E+02 
  64121.0430     0.40280E+02 
  64161.3707     0.39551E+02 
  64201.6984     0.38837E+02 
  64242.0261     0.38140E+02 
  64282.3538     0.37459E+02 
  64322.6815     0.36794E+02 
  64363.0092     0.36145E+02 
  64403.3369     0.35512E+02 
  64443.6646     0.34895E+02 
  64483.9923     0.34295E+02 
  64524.3200     0.33710E+02 
  64564.6477     0.33141E+02 
  64604.9754     0.32587E+02 
  64645.3031     0.32049E+02 
  64685.6308     0.31527E+02 
  64725.9585     0.31020E+02 
  64766.2862     0.30528E+02 
  64806.6139     0.30051E+02 
  64846.9416     0.29588E+02 
  64887.2693     0.29140E+02 
  64927.5970     0.28707E+02 
  64967.9247     0.28287E+02 
  65008.2524     0.27882E+02 
  65048.5801     0.27490E+02 
  65088.9078     0.27112E+02 
  65129.2355     0.26747E+02 
  65169.5632     0.26395E+02 
  65209.8909     0.26056E+02 
  65250.2186     0.25730E+02 
  65290.5463     0.25416E+02 
  65330.8740     0.25116E+02 
  65371.2017     0.24827E+02 
  65411.5294     0.24551E+02 
  65451.8571     0.24287E+02 
  65492.1848     0.24035E+02 
  65532.5125     0.23795E+02 
  65572.8402     0.23568E+02 
  65613.1679     0.23352E+02 
  65653.4956     0.23148E+02 
  65693.8233     0.22956E+02 
  65734.1510     0.22776E+02 
  65774.4787     0.22608E+02 
  65814.8064     0.22452E+02 
  65855.1341     0.22308E+02 
  65895.4618     0.22175E+02 
  65935.7895     0.22055E+02 
  65976.1172     0.21946E+02 
  66016.4449     0.21849E+02 
  66056.7726     0.21764E+02 
  66097.1003     0.21691E+02 
  66137.4280     0.21630E+02 
  66177.7557     0.21581E+02 
  66218.0834     0.21543E+02 
  66258.4111     0.21517E+02 
  66298.7388     0.21503E+02 
  66339.0665     0.21501E+02 
  66379.3942     0.21511E+02 
  66419.7219     0.21533E+02 
  66460.0496     0.21567E+02 
  66500.3773     0.21613E+02 
  66540.7050     0.21670E+02 
  66581.0327     0.21740E+02 
  66621.3604     0.21821E+02 
  66661.6881     0.21915E+02 
  66702.0158     0.22021E+02 
  66742.3435     0.22139E+02 
  66782.6712     0.22270E+02 
  66822.9989     0.22413E+02 
  66863.3266     0.22568E+02 
  66903.6543     0.22736E+02 
  66943.9820     0.22916E+02 
  66984.3097     0.23109E+02 
  67024.6374     0.23315E+02 
  67064.9651     0.23534E+02 
  67105.2928     0.23766E+02 
  67145.6205     0.24011E+02 
  67185.9482     0.24269E+02 
  67226.2759     0.24541E+02 
  67266.6036     0.24826E+02 
  67306.9313     0.25125E+02 
  67347.2590     0.25438E+02 
  67387.5867     0.25765E+02 
  67427.9144     0.26106E+02 
  67468.2421     0.26461E+02 
  67508.5698     0.26830E+02 
  67548.8975     0.27214E+02 
  67589.2252     0.27613E+02 
  67629.5529     0.28028E+02 
  67669.8806     0.28457E+02 
  67710.2083     0.28901E+02 
  67750.5360     0.29361E+02 
  67790.8637     0.29836E+02 
  67831.1914     0.30328E+02 
  67871.5191     0.30836E+02 
  67911.8468     0.31360E+02 
  67952.1745     0.31900E+02 
  67992.5022     0.32458E+02 
  68032.8299     0.33032E+02 
  68073.1576     0.33624E+02 
  68113.4853     0.34233E+02 
  68153.8130     0.34860E+02 
  68194.1407     0.35506E+02 
  68234.4684     0.36169E+02 
  68274.7961     0.36851E+02 
  68315.1238     0.37552E+02 
  68355.4515     0.38273E+02 
  68395.7792     0.39013E+02 
  68436.1069     0.39773E+02 
  68476.4346     0.40553E+02 
  68516.7623     0.41353E+02 
  68557.0900     0.42175E+02 
  68597.4177     0.43018E+02 
  68637.7454     0.43882E+02 
  68678.0731     0.44769E+02 
  68718.4008     0.45678E+02 
  68758.7285     0.46610E+02 
  68799.0562     0.47565E+02 
  68839.3839     0.48544E+02 
  68879.7116     0.49547E+02 
  68920.0393     0.50574E+02 
  68960.3670     0.51626E+02 
  69000.6947     0.52704E+02 
  69041.0224     0.53808E+02 
  69081.3501     0.54938E+02 
  69121.6778     0.56096E+02 
  69162.0055     0.57280E+02 
  69202.3332     0.58493E+02 
  69242.6609     0.59734E+02 
  69282.9886     0.61004E+02 
  69323.3163     0.62304E+02 
  69363.6440     0.63634E+02 
  69403.9717     0.64995E+02 
  69444.2994     0.66388E+02 
  69484.6271     0.67812E+02 
  69524.9548     0.69270E+02 
  69565.2825     0.70760E+02 
  69605.6102     0.72285E+02 
  69645.9379     0.73845E+02 
  69686.2656     0.75440E+02 
  69726.5933     0.77072E+02 
  69766.9210     0.78741E+02 
  69807.2487     0.80447E+02 
  69847.5764     0.82192E+02 
  69887.9041     0.83976E+02 
  69928.2318     0.85801E+02 
  69968.5595     0.87667E+02 
  70008.8872     0.89576E+02 
  70049.2149     0.91526E+02 
  70089.5426     0.93522E+02 
  70129.8703     0.95561E+02 
  70170.1980     0.97647E+02 
  70210.5257     0.99780E+02 
  70250.8534     0.10196E+03 
  70291.1811     0.10419E+03 
  70331.5088     0.10647E+03 
  70371.8365     0.10880E+03 
  70412.1642     0.11119E+03 
  70452.4919     0.11362E+03 
  70492.8196     0.11612E+03 
  70533.1473     0.11866E+03 
  70573.4750     0.12127E+03 
  70613.8027     0.12393E+03 
  70654.1304     0.12666E+03 
  70694.4581     0.12945E+03 
  70734.7858     0.13229E+03 
  70775.1135     0.13521E+03 
  70815.4412     0.13819E+03 
  70855.7689     0.14124E+03 
  70896.0966     0.14435E+03 
  70936.4243     0.14754E+03 
  70976.7520     0.15080E+03 
  71017.0797     0.15414E+03 
  71057.4074     0.15755E+03 
  71097.7351     0.16104E+03 
  71138.0628     0.16460E+03 
  71178.3905     0.16825E+03 
  71218.7182     0.17199E+03 
  71259.0459     0.17581E+03 
  71299.3736     0.17972E+03 
  71339.7013     0.18372E+03 
  71380.0290     0.18781E+03 
  71420.3567     0.19200E+03 
  71460.6844     0.19628E+03 
  71501.0121     0.20067E+03 
  71541.3398     0.20515E+03 
  71581.6675     0.20975E+03 
  71621.9952     0.21444E+03 
  71662.3229     0.21926E+03 
  71702.6506     0.22418E+03 
  71742.9783     0.22922E+03 
  71783.3060     0.23438E+03 
  71823.6337     0.23966E+03 
  71863.9614     0.24507E+03 
  71904.2891     0.25061E+03 
  71944.6168     0.25628E+03 
  71984.9445     0.26209E+03 
  72025.2722     0.26804E+03 
  72065.5999     0.27413E+03 
  72105.9276     0.28037E+03 
  72146.2553     0.28676E+03 
  72186.5830     0.29331E+03 
  72226.9107     0.30001E+03 
  72267.2384     0.30688E+03 
  72307.5661     0.31393E+03 
  72347.8938     0.32115E+03 
  72388.2215     0.32854E+03 
  72428.5492     0.33612E+03 
  72468.8769     0.34389E+03 
  72509.2046     0.35185E+03 
  72549.5323     0.36001E+03 
  72589.8600     0.36838E+03 
